time,pupil_size,gsr,ppg,gsr_filt,ppg_filt,pupil_size_z,gsr_filt_z,ppg_filt_z,pupil_baseline,delta_pupil,pupil_smoothed
0.0,3.31,0.42,1.0,0.41999999999999965,1.0000000646322718,-0.18585796687739295,0.1903890494749795,1.5661035088140216,,,
0.10000000000002274,3.31,0.42,0.00016770702332071072,0.41999999999999965,0.3011618319466337,-0.18585796687739295,0.1903890494749795,-0.46354578269656554,3.31,0.0,
0.20000000000004547,3.31,0.42,0.0003354626957863136,0.41999999999999965,-0.07988229758662678,-0.18585796687739295,0.1903890494749795,-1.5702195612179914,3.31,0.0,
0.3000000000000682,3.31,0.42,0.0005032183682519165,0.41999999999999965,-0.11200388750650121,-0.18585796687739295,0.1903890494749795,-1.6635109113098718,3.31,0.0,
0.40000000000009095,3.31,0.42,0.0006709740407175195,0.41999999999999965,-0.005738538106951865,-0.18585796687739295,0.1903890494749795,-1.3548824175709762,3.31,0.0,
0.5000000000001137,3.31,0.42,0.0008387297131831224,0.41999999999999965,0.04860885739208079,-0.18585796687739295,0.1903890494749795,-1.1970402337709423,3.31,0.0,0.0
0.6000000000001364,3.31,0.42,0.0010064853856487253,0.41999999999999965,0.024589358111044766,-0.18585796687739295,0.1903890494749795,-1.2668005265225895,3.31,0.0,0.0
0.7000000000001592,3.31,0.42,0.0011742410581143282,0.41999999999999965,-0.010646643117980017,-0.18585796687739295,0.1903890494749795,-1.36913712115239,3.31,0.0,0.0
0.8000000000001819,3.31,0.42,0.0013419967305799312,0.41999999999999965,-0.015019418375245489,-0.18585796687739295,0.1903890494749795,-1.381837056255735,3.31,0.0,0.0
0.9000000000002046,3.31,0.42,0.001509752403045534,0.41999999999999965,-0.00037924915140247943,-0.18585796687739295,0.1903890494749795,-1.339317331800226,3.31,0.0,0.0
1.0000000000002274,3.31,0.42,0.001677508075511137,0.41999999999999965,0.008455862110943005,-0.18585796687739295,0.1903890494749795,-1.3136573485947807,3.31,0.0,0.0
1.1000000000002501,3.31,0.42,0.00184526374797674,0.41999999999999965,0.005798261196642178,-0.18585796687739295,0.1903890494749795,-1.3213758699356914,3.31,0.0,0.0
1.2000000000002728,3.31,0.42,0.002013019420442343,0.41999999999999965,0.0006432172909983954,-0.18585796687739295,0.1903890494749795,-1.3363477628880658,3.31,0.0,0.0
1.3000000000002956,3.31,0.42,0.002180775092907946,0.41999999999999965,-0.0002833588020053522,-0.18585796687739295,0.1903890494749795,-1.3390388356181147,3.31,0.0,0.0
1.4000000000003183,3.31,0.42,0.0023485307653735485,0.41999999999999965,0.0018707396819808008,-0.18585796687739295,0.1903890494749795,-1.3327826460489425,3.31,0.0,0.0
1.500000000000341,3.31,0.42,0.0025162864378391516,0.41999999999999965,0.003448877065864898,-0.18585796687739295,0.1903890494749795,-1.3281992313568223,3.31,0.0,0.0
1.6000000000003638,3.31,0.42,0.0026840421103047547,0.41999999999999965,0.0033294239598248075,-0.18585796687739295,0.1903890494749795,-1.3285461613052756,3.31,0.0,0.0
1.7000000000003865,3.31,0.42,0.0028517977827703573,0.41999999999999965,0.002709342348042101,-0.18585796687739295,0.1903890494749795,-1.3303470762311762,3.31,0.0,0.0
1.8000000000004093,3.31,0.42,0.0030195534552359604,0.41999999999999965,0.0026540461180974894,-0.18585796687739295,0.1903890494749795,-1.3305076741330668,3.31,0.0,0.0
1.900000000000432,3.31,0.42,0.0031873091277015634,0.41999999999999965,0.003088121230227288,-0.18585796687739295,0.1903890494749795,-1.329246981454003,3.31,0.0,0.0
2.0000000000004547,3.31,0.42,0.003355064800167166,0.41999999999999965,0.0034805662413165007,-0.18585796687739295,0.1903890494749795,-1.3281071958763695,3.31,0.0,0.0
2.1000000000004775,3.31,0.42,0.003522820472632769,0.41999999999999965,0.0036259414771053324,-0.18585796687739295,0.1903890494749795,-1.3276849797889811,3.31,0.0,0.0
2.2000000000005002,3.31,0.42,0.003690576145098372,0.41999999999999965,0.0036787777538679744,-0.18585796687739295,0.1903890494749795,-1.327531526376329,3.31,0.0,0.0
2.300000000000523,3.31,0.42,0.003858331817563975,0.41999999999999965,0.003804897774943685,-0.18585796687739295,0.1903890494749795,-1.327165233578584,3.31,0.0,0.0
2.4000000000005457,3.31,0.42,0.004026087490029578,0.41999999999999965,0.004007377373795406,-0.18585796687739295,0.1903890494749795,-1.3265771681935872,3.31,0.0,0.0
2.5000000000005684,3.31,0.42,0.0041938431624951806,0.41999999999999965,0.004210282904023692,-0.18585796687739295,0.1903890494749795,-1.325987865767919,3.31,0.0,0.0
2.600000000000591,3.31,0.42,0.004361598834960784,0.41999999999999965,0.0043777730083940725,-0.18585796687739295,0.1903890494749795,-1.3255014210432734,3.31,0.0,0.0
2.700000000000614,3.31,0.42,0.004529354507426387,0.41999999999999965,0.00452901706928773,-0.18585796687739295,0.1903890494749795,-1.325062160014497,3.31,0.0,0.0
2.8000000000006366,3.31,0.42,0.004697110179891989,0.41999999999999965,0.0046894148494263585,-0.18585796687739295,0.1903890494749795,-1.324596313663236,3.31,0.0,0.0
2.9000000000006594,3.31,0.42,0.004864865852357593,0.41999999999999965,0.0048615363039383325,-0.18585796687739295,0.1903890494749795,-1.324096418019488,3.31,0.0,0.0
3.000000000000682,3.31,0.42,0.0050326215248231955,0.41999999999999965,0.005034701370811067,-0.18585796687739295,0.1903890494749795,-1.3235934913923315,3.31,0.0,0.0
3.100000000000705,3.31,0.42,0.005200377197288798,0.41999999999999965,0.005202872269672847,-0.18585796687739295,0.1903890494749795,-1.3231050694231787,3.31,0.0,0.0
3.2000000000007276,3.31,0.42,0.005368132869754402,0.41999999999999965,0.00536829355038966,-0.18585796687739295,0.1903890494749795,-1.322624633222776,3.31,0.0,0.0
3.3000000000007503,3.31,0.42,0.005535888542220004,0.41999999999999965,0.005534797833698842,-0.18585796687739295,0.1903890494749795,-1.322141051637159,3.31,0.0,0.0
3.400000000000773,3.31,0.42,0.005703644214685607,0.41999999999999965,0.005703075063874376,-0.18585796687739295,0.1903890494749795,-1.3216523208479312,3.31,0.0,0.0
3.500000000000796,3.31,0.42,0.0058713998871512095,0.41999999999999965,0.005871650619082109,-0.18585796687739295,0.1903890494749795,-1.3211627236275865,3.31,0.0,0.0
3.6000000000008185,3.31,0.42,0.006039155559616813,0.41999999999999965,0.00603953458072605,-0.18585796687739295,0.1903890494749795,-1.3206751350157027,3.31,0.0,0.0
3.7000000000008413,3.31,0.42,0.006206911232082416,0.41999999999999965,0.006206966051234963,-0.18585796687739295,0.1903890494749795,-1.3201888605825065,3.31,0.0,0.0
3.800000000000864,3.31,0.42,0.006374666904548018,0.41999999999999965,0.006374514996941045,-0.18585796687739295,0.1903890494749795,-1.3197022449638407,3.31,0.0,0.0
3.9000000000008868,3.31,0.42,0.006542422577013622,0.41999999999999965,0.006542328181138964,-0.18585796687739295,0.1903890494749795,-1.3192148619122515,3.31,0.0,0.0
4.0000000000009095,3.31,0.42,0.006710178249479224,0.41999999999999965,0.006710206315267271,-0.18585796687739295,0.1903890494749795,-1.318727290225333,3.31,0.0,0.0
4.100000000000932,3.31,0.42,0.006877933921944827,0.41999999999999965,0.006877990658311378,-0.18585796687739295,0.1903890494749795,-1.3182399909376605,3.31,0.0,0.0
4.200000000000955,3.31,0.42,0.0070456895944104305,0.41999999999999965,0.0070457022149710115,-0.18585796687739295,0.1903890494749795,-1.3177529030448814,3.31,0.0,0.0
4.300000000000978,3.31,0.42,0.007213445266876033,0.41999999999999965,0.007213424527879876,-0.18585796687739295,0.1903890494749795,-1.317265783912521,3.31,0.0,0.0
4.4000000000010004,3.31,0.42,0.007381200939341636,0.41999999999999965,0.007381185656807519,-0.18585796687739295,0.1903890494749795,-1.3167785520460527,3.31,0.0,0.0
4.500000000001023,3.31,0.42,0.007548956611807239,0.41999999999999965,0.007548959358116924,-0.18585796687739295,0.1903890494749795,-1.3162912836653742,3.31,0.0,0.0
4.600000000001046,3.31,0.42,0.007716712284272842,0.41999999999999965,0.007716720655315813,-0.18585796687739295,0.1903890494749795,-1.3158040513101923,3.31,0.0,0.0
4.700000000001069,3.31,0.42,0.007884467956738445,0.41999999999999965,0.00788447046914699,-0.18585796687739295,0.1903890494749795,-1.3153168523063756,3.31,0.0,0.0
4.800000000001091,3.31,0.42,0.008052223629204047,0.41999999999999965,0.00805222086399401,-0.18585796687739295,0.1903890494749795,-1.3148296516151035,3.31,0.0,0.0
4.900000000001114,3.31,0.42,0.008219979301669652,0.41999999999999965,0.008219976877098653,-0.18585796687739295,0.1903890494749795,-1.314342434606618,3.31,0.0,0.0
5.000000000001137,3.31,0.42,0.008387734974135254,0.41999999999999965,0.008387735165002951,-0.18585796687739295,0.1903890494749795,-1.313855210991388,3.31,0.0,0.0
5.10000000000116,3.31,0.42,0.008555490646600857,0.41999999999999965,0.008555491863726186,-0.18585796687739295,0.1903890494749795,-1.313367991991647,3.31,0.0,0.0
5.200000000001182,3.31,0.42,0.00872324631906646,0.41999999999999965,0.008723246781563216,-0.18585796687739295,0.1903890494749795,-1.3128807781641683,3.31,0.0,0.0
5.300000000001205,3.31,0.42,0.008891001991532062,0.41999999999999965,0.008891001633521705,-0.18585796687739295,0.1903890494749795,-1.3123935645280216,3.31,0.0,0.0
5.400000000001228,3.31,0.42,0.009058757663997665,0.41999999999999965,0.009058757286102118,-0.18585796687739295,0.1903890494749795,-1.3119063485666134,3.31,0.0,0.0
5.5000000000012506,3.31,0.42,0.009226513336463269,0.41999999999999965,0.009226513332180802,-0.18585796687739295,0.1903890494749795,-1.3114191314623607,3.31,0.0,0.0
5.600000000001273,3.31,0.42,0.009394269008928872,0.41999999999999965,0.009394269183210758,-0.18585796687739295,0.1903890494749795,-1.3109319149245917,3.31,0.0,0.0
5.700000000001296,3.31,0.42,0.009562024681394474,0.41999999999999965,0.009562024762362021,-0.18585796687739295,0.1903890494749795,-1.3104446991764451,3.31,0.0,0.0
5.800000000001319,3.31,0.42,0.009729780353860077,0.41999999999999965,0.009729780309275952,-0.18585796687739295,0.1903890494749795,-1.309957483521926,3.31,0.0,0.0
5.9000000000013415,3.31,0.42,0.00989753602632568,0.41999999999999965,0.0098975359683665,-0.18585796687739295,0.1903890494749795,-1.3094702675416103,3.31,0.0,0.0
6.000000000001364,3.31,0.42,0.010065291698791282,0.41999999999999965,0.01006529169331956,-0.18585796687739295,0.1903890494749795,-1.3089830513700091,3.31,0.0,0.0
6.100000000001387,3.31,0.42,0.010233047371256885,0.41999999999999965,0.010233047395805382,-0.18585796687739295,0.1903890494749795,-1.3084958352636595,3.31,0.0,0.0
6.20000000000141,3.31,0.42,0.01040080304372249,0.41999999999999965,0.010400803057397488,-0.18585796687739295,0.1903890494749795,-1.3080086192760785,3.31,0.0,0.0
6.3000000000014325,3.31,0.42,0.010568558716188092,0.41999999999999965,0.010568558710936904,-0.18585796687739295,0.1903890494749795,-1.3075214033118852,3.31,0.0,0.0
6.400000000001455,3.31,0.42,0.010736314388653695,0.41999999999999965,0.010736314379897272,-0.18585796687739295,0.1903890494749795,-1.3070341873029043,3.31,0.0,0.0
6.500000000001478,3.31,0.42,0.010904070061119297,0.41999999999999965,0.01090407005960035,-0.18585796687739295,0.1903890494749795,-1.3065469712627231,3.31,0.0,0.0
6.600000000001501,3.31,0.42,0.0110718257335849,0.41999999999999965,0.011071825736979976,-0.18585796687739295,0.1903890494749795,-1.3060597552292903,3.31,0.0,0.0
6.700000000001523,3.31,0.42,0.011239581406050502,0.41999999999999965,0.011239581408297197,-0.18585796687739295,0.1903890494749795,-1.3055725392134645,3.31,0.0,0.0
6.800000000001546,3.31,0.42,0.011407337078516107,0.41999999999999965,0.011407337077950915,-0.18585796687739295,0.1903890494749795,-1.3050853232024697,3.31,0.0,0.0
6.900000000001569,3.31,0.42,0.01157509275098171,0.41999999999999965,0.011575092749677917,-0.18585796687739295,0.1903890494749795,-1.3045981071854538,3.31,0.0,0.0
7.000000000001592,3.31,0.42,0.011742848423447312,0.41999999999999965,0.011742848423120098,-0.18585796687739295,0.1903890494749795,-1.3041108911634565,3.31,0.0,0.0
7.100000000001614,3.31,0.42,0.011910604095912915,0.41999999999999965,0.011910604096372634,-0.18585796687739295,0.1903890494749795,-1.3036236751420098,3.31,0.0,0.0
7.200000000001637,3.31,0.42,0.012078359768378517,0.41999999999999965,0.01207835976873941,-0.18585796687739295,0.1903890494749795,-1.3031364591231358,3.31,0.0,0.0
7.30000000000166,3.31,0.42,0.01224611544084412,0.41999999999999965,0.012246115440793263,-0.18585796687739295,0.1903890494749795,-1.3026492431051706,3.31,0.0,0.0
7.400000000001683,3.31,0.42,0.012413871113309724,0.41999999999999965,0.012413871113118381,-0.18585796687739295,0.1903890494749795,-1.3021620270864174,3.31,0.0,0.0
7.500000000001705,3.31,0.42,0.012581626785775327,0.41999999999999965,0.012581626785712337,-0.18585796687739295,0.1903890494749795,-1.3016748110668834,3.31,0.0,0.0
7.600000000001728,3.31,0.42,0.01274938245824093,0.41999999999999965,0.012749382458301612,-0.18585796687739295,0.1903890494749795,-1.3011875950473633,3.31,0.0,0.0
7.700000000001751,3.31,0.42,0.012917138130706532,0.41999999999999965,0.0129171381307634,-0.18585796687739295,0.1903890494749795,-1.300700379028213,3.31,0.0,0.0
7.8000000000017735,3.31,0.42,0.013084893803172135,0.41999999999999965,0.0130848938031696,-0.18585796687739295,0.1903890494749795,-1.3002131630092244,3.31,0.0,0.0
7.900000000001796,3.31,0.42,0.013252649475637738,0.41999999999999965,0.013252649475610065,-0.18585796687739295,0.1903890494749795,-1.2997259469901363,3.31,0.0,0.0
8.000000000001819,3.31,0.42,0.013420405148103342,0.41999999999999965,0.01342040514809198,-0.18585796687739295,0.1903890494749795,-1.2992387309709277,3.31,0.0,0.0
8.100000000001842,3.31,0.42,0.013588160820568945,0.41999999999999965,0.013588160820576695,-0.18585796687739295,0.1903890494749795,-1.2987515149517113,3.31,0.0,0.0
8.200000000001864,3.31,0.42,0.013755916493034547,0.41999999999999965,0.013755916493043354,-0.18585796687739295,0.1903890494749795,-1.298264298932547,3.31,0.0,0.0
8.300000000001887,3.31,0.42,0.01392367216550015,0.41999999999999965,0.013923672165500521,-0.18585796687739295,0.1903890494749795,-1.2977770829134105,3.31,0.0,0.0
8.40000000000191,3.31,0.42,0.014091427837965752,0.41999999999999965,0.01409142783796181,-0.18585796687739295,0.1903890494749795,-1.2972898668942618,3.31,0.0,0.0
8.500000000001933,3.31,0.42,0.014259183510431355,0.41999999999999965,0.014259183510429393,-0.18585796687739295,0.1903890494749795,-1.296802650875095,3.31,0.0,0.0
8.600000000001955,3.31,0.42,0.01442693918289696,0.41999999999999965,0.014426939182897907,-0.18585796687739295,0.1903890494749795,-1.2963154348559254,3.31,0.0,0.0
8.700000000001978,3.31,0.42,0.014594694855362562,0.41999999999999965,0.014594694855363903,-0.18585796687739295,0.1903890494749795,-1.2958282188367631,3.31,0.0,0.0
8.800000000002001,3.31,0.42,0.014762450527828165,0.41999999999999965,0.014762450527828326,-0.18585796687739295,0.1903890494749795,-1.2953410028176053,3.31,0.0,0.0
8.900000000002024,3.31,0.42,0.014930206200293767,0.41999999999999965,0.01493020620029321,-0.18585796687739295,0.1903890494749795,-1.2948537867984462,3.31,0.0,0.0
9.000000000002046,3.31,0.42,0.01509796187275937,0.41999999999999965,0.015097961872759035,-0.18585796687739295,0.1903890494749795,-1.2943665707792846,3.31,0.0,0.0
9.100000000002069,3.31,0.42,0.015265717545224973,0.41999999999999965,0.015265717545225075,-0.18585796687739295,0.1903890494749795,-1.2938793547601222,3.31,0.0,0.0
9.200000000002092,3.31,0.42,0.015433473217690577,0.41999999999999965,0.015433473217690771,-0.18585796687739295,0.1903890494749795,-1.2933921387409608,3.31,0.0,0.0
9.300000000002115,3.31,0.42,0.01560122889015618,0.41999999999999965,0.015601228890156216,-0.18585796687739295,0.1903890494749795,-1.2929049227218001,3.31,0.0,0.0
9.400000000002137,3.31,0.42,0.015768984562621782,0.41999999999999965,0.015768984562621702,-0.18585796687739295,0.1903890494749795,-1.2924177067026392,3.31,0.0,0.0
9.50000000000216,3.31,0.42,0.015936740235087385,0.41999999999999965,0.015936740235087326,-0.18585796687739295,0.1903890494749795,-1.291930490683478,3.31,0.0,0.0
9.600000000002183,3.31,0.42,0.016104495907552988,0.41999999999999965,0.01610449590755299,-0.18585796687739295,0.1903890494749795,-1.291443274664317,3.31,0.0,0.0
9.700000000002206,3.31,0.42,0.01627225158001859,0.41999999999999965,0.01627225158001861,-0.18585796687739295,0.1903890494749795,-1.2909560586451556,3.31,0.0,0.0
9.800000000002228,3.31,0.42,0.016440007252484193,0.41999999999999965,0.016440007252484193,-0.18585796687739295,0.1903890494749795,-1.2904688426259947,3.31,0.0,0.0
9.900000000002251,3.31,0.42,0.016607762924949795,0.41999999999999965,0.016607762924949778,-0.18585796687739295,0.1903890494749795,-1.2899816266068336,3.31,0.0,0.0
10.000000000002274,3.31,0.42,0.016775518597415398,0.41999999999999965,0.016775518597415384,-0.18585796687739295,0.1903890494749795,-1.2894944105876724,3.31,0.0,0.0
10.100000000002296,3.31,0.42,0.016943274269881004,0.41999999999999965,0.016943274269881,-0.18585796687739295,0.1903890494749795,-1.289007194568511,3.31,0.0,0.0
10.20000000000232,3.31,0.42,0.017111029942346607,0.41999999999999965,0.017111029942346607,-0.18585796687739295,0.1903890494749795,-1.2885199785493502,3.31,0.0,0.0
10.300000000002342,3.31,0.42,0.01727878561481221,0.41999999999999965,0.017278785614812203,-0.18585796687739295,0.1903890494749795,-1.2880327625301888,3.31,0.0,0.0
10.400000000002365,3.31,0.42,0.017446541287277812,0.41999999999999965,0.0174465412872778,-0.18585796687739295,0.1903890494749795,-1.287545546511028,3.31,0.0,0.0
10.500000000002387,3.31,0.42,0.017614296959743415,0.41999999999999965,0.017614296959743408,-0.18585796687739295,0.1903890494749795,-1.2870583304918668,3.31,0.0,0.0
10.60000000000241,3.31,0.42,0.017782052632209017,0.41999999999999965,0.017782052632209014,-0.18585796687739295,0.1903890494749795,-1.2865711144727057,3.31,0.0,0.0
10.700000000002433,3.31,0.42,0.01794980830467462,0.41999999999999965,0.017949808304674617,-0.18585796687739295,0.1903890494749795,-1.2860838984535445,3.31,0.0,0.0
10.800000000002456,3.31,0.42,0.018117563977140223,0.41999999999999965,0.01811756397714022,-0.18585796687739295,0.1903890494749795,-1.2855966824343834,3.31,0.0,0.0
10.900000000002478,3.31,0.42,0.018285319649605825,0.41999999999999965,0.018285319649605822,-0.18585796687739295,0.1903890494749795,-1.2851094664152223,3.31,0.0,0.0
11.000000000002501,3.31,0.42,0.018453075322071428,0.41999999999999965,0.018453075322071424,-0.18585796687739295,0.1903890494749795,-1.2846222503960611,3.31,0.0,0.0
11.100000000002524,3.31,0.42,0.01862083099453703,0.41999999999999965,0.018620830994537024,-0.18585796687739295,0.1903890494749795,-1.2841350343769,3.31,0.0,0.0
11.200000000002547,3.31,0.42,0.018788586667002633,0.41999999999999965,0.018788586667002623,-0.18585796687739295,0.1903890494749795,-1.283647818357739,3.31,0.0,0.0
11.30000000000257,3.31,0.42,0.018956342339468236,0.41999999999999965,0.018956342339468225,-0.18585796687739295,0.1903890494749795,-1.2831606023385778,3.31,0.0,0.0
11.400000000002592,3.31,0.42,0.019124098011933842,0.41999999999999965,0.01912409801193383,-0.18585796687739295,0.1903890494749795,-1.2826733863194166,3.31,0.0,0.0
11.500000000002615,3.31,0.42,0.019291853684399445,0.41999999999999965,0.019291853684399438,-0.18585796687739295,0.1903890494749795,-1.2821861703002555,3.31,0.0,0.0
11.600000000002638,3.31,0.42,0.019459609356865047,0.41999999999999965,0.01945960935686504,-0.18585796687739295,0.1903890494749795,-1.2816989542810944,3.31,0.0,0.0
11.70000000000266,3.31,0.42,0.01962736502933065,0.41999999999999965,0.019627365029330646,-0.18585796687739295,0.1903890494749795,-1.2812117382619332,3.31,0.0,0.0
11.800000000002683,3.31,0.42,0.019795120701796252,0.41999999999999965,0.019795120701796252,-0.18585796687739295,0.1903890494749795,-1.2807245222427721,3.31,0.0,0.0
11.900000000002706,3.31,0.42,0.019962876374261855,0.41999999999999965,0.01996287637426185,-0.18585796687739295,0.1903890494749795,-1.280237306223611,3.31,0.0,0.0
12.000000000002728,3.31,0.42,0.020130632046727458,0.41999999999999965,0.020130632046727447,-0.18585796687739295,0.1903890494749795,-1.2797500902044499,3.31,0.0,0.0
12.100000000002751,3.31,0.42,0.02029838771919306,0.41999999999999965,0.02029838771919305,-0.18585796687739295,0.1903890494749795,-1.2792628741852887,3.31,0.0,0.0
12.200000000002774,3.31,0.42,0.020466143391658663,0.41999999999999965,0.02046614339165866,-0.18585796687739295,0.1903890494749795,-1.2787756581661276,3.31,0.0,0.0
12.300000000002797,3.31,0.42,0.020633899064124266,0.41999999999999965,0.020633899064124266,-0.18585796687739295,0.1903890494749795,-1.2782884421469665,3.31,0.0,0.0
12.40000000000282,3.31,0.42,0.020801654736589868,0.41999999999999965,0.020801654736589865,-0.18585796687739295,0.1903890494749795,-1.2778012261278053,3.31,0.0,0.0
12.500000000002842,3.31,0.42,0.02096941040905547,0.41999999999999965,0.02096941040905546,-0.18585796687739295,0.1903890494749795,-1.2773140101086442,3.31,0.0,0.0
12.600000000002865,3.31,0.42,0.021137166081521077,0.41999999999999965,0.02113716608152106,-0.18585796687739295,0.1903890494749795,-1.276826794089483,3.31,0.0,0.0
12.700000000002888,3.31,0.42,0.02130492175398668,0.41999999999999965,0.02130492175398667,-0.18585796687739295,0.1903890494749795,-1.276339578070322,3.31,0.0,0.0
12.80000000000291,3.31,0.42,0.021472677426452282,0.41999999999999965,0.02147267742645228,-0.18585796687739295,0.1903890494749795,-1.2758523620511608,3.31,0.0,0.0
12.900000000002933,3.31,0.42,0.021640433098917885,0.41999999999999965,0.021640433098917885,-0.18585796687739295,0.1903890494749795,-1.2753651460319997,3.31,0.0,0.0
13.000000000002956,3.31,0.42,0.021808188771383488,0.41999999999999965,0.021808188771383488,-0.18585796687739295,0.1903890494749795,-1.2748779300128386,3.31,0.0,0.0
13.100000000002979,3.31,0.42,0.02197594444384909,0.41999999999999965,0.021975944443849087,-0.18585796687739295,0.1903890494749795,-1.2743907139936774,3.31,0.0,0.0
13.200000000003001,3.31,0.42,0.022143700116314693,0.41999999999999965,0.02214370011631469,-0.18585796687739295,0.1903890494749795,-1.2739034979745163,3.31,0.0,0.0
13.300000000003024,3.31,0.42,0.022311455788780295,0.41999999999999965,0.022311455788780292,-0.18585796687739295,0.1903890494749795,-1.2734162819553552,3.31,0.0,0.0
13.400000000003047,3.31,0.42,0.022479211461245898,0.41999999999999965,0.022479211461245895,-0.18585796687739295,0.1903890494749795,-1.272929065936194,3.31,0.0,0.0
13.50000000000307,3.31,0.42,0.0226469671337115,0.41999999999999965,0.022646967133711497,-0.18585796687739295,0.1903890494749795,-1.272441849917033,3.31,0.0,0.0
13.600000000003092,3.31,0.42,0.022814722806177103,0.41999999999999965,0.022814722806177093,-0.18585796687739295,0.1903890494749795,-1.271954633897872,3.31,0.0,0.0
13.700000000003115,3.31,0.42,0.022982478478642706,0.41999999999999965,0.02298247847864269,-0.18585796687739295,0.1903890494749795,-1.2714674178787106,3.31,0.0,0.0
13.800000000003138,3.31,0.42,0.023150234151108312,0.41999999999999965,0.023150234151108298,-0.18585796687739295,0.1903890494749795,-1.2709802018595497,3.31,0.0,0.0
13.90000000000316,3.31,0.42,0.023317989823573915,0.41999999999999965,0.02331798982357391,-0.18585796687739295,0.1903890494749795,-1.2704929858403884,3.31,0.0,0.0
14.000000000003183,3.31,0.42,0.023485745496039517,0.41999999999999965,0.023485745496039514,-0.18585796687739295,0.1903890494749795,-1.2700057698212275,3.31,0.0,0.0
14.100000000003206,3.31,0.42,0.02365350116850512,0.41999999999999965,0.023653501168505113,-0.18585796687739295,0.1903890494749795,-1.2695185538020661,3.31,0.0,0.0
14.200000000003229,3.31,0.42,0.023821256840970723,0.41999999999999965,0.023821256840970712,-0.18585796687739295,0.1903890494749795,-1.2690313377829052,3.31,0.0,0.0
14.300000000003251,3.31,0.42,0.023989012513436325,0.41999999999999965,0.023989012513436315,-0.18585796687739295,0.1903890494749795,-1.2685441217637439,3.31,0.0,0.0
14.400000000003274,3.31,0.42,0.024156768185901928,0.41999999999999965,0.02415676818590192,-0.18585796687739295,0.1903890494749795,-1.268056905744583,3.31,0.0,0.0
14.500000000003297,3.31,0.42,0.02432452385836753,0.41999999999999965,0.024324523858367524,-0.18585796687739295,0.1903890494749795,-1.2675696897254216,3.31,0.0,0.0
14.60000000000332,3.31,0.42,0.024492279530833133,0.41999999999999965,0.024492279530833123,-0.18585796687739295,0.1903890494749795,-1.2670824737062607,3.31,0.0,0.0
14.700000000003342,3.31,0.42,0.024660035203298736,0.41999999999999965,0.024660035203298722,-0.18585796687739295,0.1903890494749795,-1.2665952576870994,3.31,0.0,0.0
14.800000000003365,3.31,0.42,0.02482779087576434,0.41999999999999965,0.02482779087576433,-0.18585796687739295,0.1903890494749795,-1.2661080416679384,3.31,0.0,0.0
14.900000000003388,3.31,0.42,0.02499554654822994,0.41999999999999965,0.024995546548229938,-0.18585796687739295,0.1903890494749795,-1.265620825648777,3.31,0.0,0.0
15.00000000000341,3.31,0.42,0.025163302220695544,0.41999999999999965,0.025163302220695537,-0.18585796687739295,0.1903890494749795,-1.2651336096296162,3.31,0.0,0.0
15.100000000003433,3.31,0.42,0.02533105789316115,0.41999999999999965,0.025331057893161136,-0.18585796687739295,0.1903890494749795,-1.2646463936104548,3.31,0.0,0.0
15.200000000003456,3.31,0.42,0.025498813565626752,0.41999999999999965,0.02549881356562674,-0.18585796687739295,0.1903890494749795,-1.264159177591294,3.31,0.0,0.0
15.300000000003479,3.31,0.42,0.025666569238092355,0.41999999999999965,0.025666569238092345,-0.18585796687739295,0.1903890494749795,-1.2636719615721328,3.31,0.0,0.0
15.400000000003502,3.31,0.42,0.025834324910557958,0.41999999999999965,0.02583432491055795,-0.18585796687739295,0.1903890494749795,-1.2631847455529717,3.31,0.0,0.0
15.500000000003524,3.31,0.42,0.02600208058302356,0.41999999999999965,0.02600208058302355,-0.18585796687739295,0.1903890494749795,-1.2626975295338105,3.31,0.0,0.0
15.600000000003547,3.31,0.42,0.026169836255489163,0.41999999999999965,0.02616983625548915,-0.18585796687739295,0.1903890494749795,-1.2622103135146494,3.31,0.0,0.0
15.70000000000357,3.31,0.42,0.026337591927954766,0.41999999999999965,0.02633759192795475,-0.18585796687739295,0.1903890494749795,-1.2617230974954883,3.31,0.0,0.0
15.800000000003593,3.31,0.42,0.026505347600420368,0.41999999999999965,0.026505347600420358,-0.18585796687739295,0.1903890494749795,-1.2612358814763271,3.31,0.0,0.0
15.900000000003615,3.31,0.42,0.02667310327288597,0.41999999999999965,0.026673103272885964,-0.18585796687739295,0.1903890494749795,-1.260748665457166,3.31,0.0,0.0
16.000000000003638,3.31,0.42,0.026840858945351573,0.41999999999999965,0.026840858945351567,-0.18585796687739295,0.1903890494749795,-1.2602614494380049,3.31,0.0,0.0
16.10000000000366,3.31,0.42,0.027008614617817176,0.41999999999999965,0.027008614617817166,-0.18585796687739295,0.1903890494749795,-1.2597742334188438,3.31,0.0,0.0
16.200000000003683,3.31,0.42,0.02717637029028278,0.41999999999999965,0.027176370290282772,-0.18585796687739295,0.1903890494749795,-1.2592870173996826,3.31,0.0,0.0
16.300000000003706,3.31,0.42,0.027344125962748385,0.41999999999999965,0.027344125962748378,-0.18585796687739295,0.1903890494749795,-1.2587998013805215,3.31,0.0,0.0
16.40000000000373,3.31,0.42,0.027511881635213987,0.41999999999999965,0.027511881635213984,-0.18585796687739295,0.1903890494749795,-1.2583125853613601,3.31,0.0,0.0
16.50000000000375,3.31,0.42,0.02767963730767959,0.41999999999999965,0.027679637307679587,-0.18585796687739295,0.1903890494749795,-1.2578253693421992,3.31,0.0,0.0
16.600000000003774,3.31,0.42,0.027847392980145193,0.41999999999999965,0.027847392980145186,-0.18585796687739295,0.1903890494749795,-1.2573381533230379,3.31,0.0,0.0
16.700000000003797,3.31,0.42,0.028015148652610795,0.41999999999999965,0.028015148652610785,-0.18585796687739295,0.1903890494749795,-1.256850937303877,3.31,0.0,0.0
16.80000000000382,3.31,0.42,0.028182904325076398,0.41999999999999965,0.02818290432507639,-0.18585796687739295,0.1903890494749795,-1.2563637212847159,3.31,0.0,0.0
16.900000000003843,3.31,0.42,0.028350659997542,0.41999999999999965,0.028350659997541997,-0.18585796687739295,0.1903890494749795,-1.2558765052655547,3.31,0.0,0.0
17.000000000003865,3.31,0.42,0.028518415670007603,0.41999999999999965,0.028518415670007596,-0.18585796687739295,0.1903890494749795,-1.2553892892463936,3.31,0.0,0.0
17.100000000003888,3.31,0.42,0.028686171342473206,0.41999999999999965,0.028686171342473196,-0.18585796687739295,0.1903890494749795,-1.2549020732272325,3.31,0.0,0.0
17.20000000000391,3.31,0.42,0.02885392701493881,0.41999999999999965,0.028853927014938795,-0.18585796687739295,0.1903890494749795,-1.2544148572080713,3.31,0.0,0.0
17.300000000003934,3.31,0.42,0.02902168268740441,0.41999999999999965,0.0290216826874044,-0.18585796687739295,0.1903890494749795,-1.2539276411889102,3.31,0.0,0.0
17.400000000003956,3.31,0.42,0.029189438359870014,0.41999999999999965,0.029189438359870007,-0.18585796687739295,0.1903890494749795,-1.253440425169749,3.31,0.0,0.0
17.50000000000398,3.31,0.42,0.02935719403233562,0.41999999999999965,0.029357194032335613,-0.18585796687739295,0.1903890494749795,-1.252953209150588,3.31,0.0,0.0
17.600000000004002,3.31,0.42,0.029524949704801223,0.41999999999999965,0.02952494970480122,-0.18585796687739295,0.1903890494749795,-1.2524659931314268,3.31,0.0,0.0
17.700000000004025,3.31,0.42,0.029692705377266825,0.41999999999999965,0.02969270537726682,-0.18585796687739295,0.1903890494749795,-1.2519787771122657,3.31,0.0,0.0
17.800000000004047,3.31,0.42,0.029860461049732428,0.41999999999999965,0.029860461049732417,-0.18585796687739295,0.1903890494749795,-1.2514915610931046,3.31,0.0,0.0
17.90000000000407,3.31,0.42,0.03002821672219803,0.41999999999999965,0.03002821672219802,-0.18585796687739295,0.1903890494749795,-1.2510043450739434,3.31,0.0,0.0
18.000000000004093,3.31,0.42,0.030195972394663633,0.41999999999999965,0.03019597239466362,-0.18585796687739295,0.1903890494749795,-1.2505171290547823,3.31,0.0,0.0
18.100000000004115,3.31,0.42,0.030363728067129236,0.41999999999999965,0.030363728067129215,-0.18585796687739295,0.1903890494749795,-1.2500299130356212,3.31,0.0,0.0
18.200000000004138,3.31,0.42,0.03053148373959484,0.41999999999999965,0.03053148373959482,-0.18585796687739295,0.1903890494749795,-1.2495426970164603,3.31,0.0,0.0
18.30000000000416,3.31,0.42,0.03069923941206044,0.41999999999999965,0.030699239412060434,-0.18585796687739295,0.1903890494749795,-1.249055480997299,3.31,0.0,0.0
18.400000000004184,3.31,0.42,0.030866995084526044,0.41999999999999965,0.03086699508452604,-0.18585796687739295,0.1903890494749795,-1.2485682649781378,3.31,0.0,0.0
18.500000000004206,3.31,0.42,0.031034750756991646,0.41999999999999965,0.03103475075699164,-0.18585796687739295,0.1903890494749795,-1.2480810489589766,3.31,0.0,0.0
18.60000000000423,3.31,0.42,0.03120250642945725,0.41999999999999965,0.03120250642945724,-0.18585796687739295,0.1903890494749795,-1.2475938329398155,3.31,0.0,0.0
18.700000000004252,3.31,0.42,0.031370262101922855,0.41999999999999965,0.031370262101922834,-0.18585796687739295,0.1903890494749795,-1.2471066169206544,3.31,0.0,0.0
18.800000000004275,3.31,0.42,0.03153801777438846,0.41999999999999965,0.03153801777438844,-0.18585796687739295,0.1903890494749795,-1.2466194009014935,3.31,0.0,0.0
18.900000000004297,3.31,0.42,0.03170577344685406,0.41999999999999965,0.03170577344685405,-0.18585796687739295,0.1903890494749795,-1.2461321848823321,3.31,0.0,0.0
19.00000000000432,3.31,0.42,0.03187352911931966,0.41999999999999965,0.03187352911931966,-0.18585796687739295,0.1903890494749795,-1.245644968863171,3.31,0.0,0.0
19.100000000004343,3.31,0.42,0.032041284791785266,0.41999999999999965,0.03204128479178526,-0.18585796687739295,0.1903890494749795,-1.2451577528440099,3.31,0.0,0.0
19.200000000004366,3.31,0.42,0.03220904046425087,0.41999999999999965,0.032209040464250854,-0.18585796687739295,0.1903890494749795,-1.244670536824849,3.31,0.0,0.0
19.30000000000439,3.31,0.42,0.03237679613671647,0.41999999999999965,0.03237679613671645,-0.18585796687739295,0.1903890494749795,-1.2441833208056876,3.31,0.0,0.0
19.40000000000441,3.31,0.42,0.03254455180918207,0.41999999999999965,0.03254455180918206,-0.18585796687739295,0.1903890494749795,-1.2436961047865265,3.31,0.0,0.0
19.500000000004434,3.31,0.42,0.032712307481647676,0.41999999999999965,0.03271230748164766,-0.18585796687739295,0.1903890494749795,-1.2432088887673653,3.31,0.0,0.0
19.600000000004457,3.31,0.42,0.03288006315411328,0.41999999999999965,0.032880063154113265,-0.18585796687739295,0.1903890494749795,-1.2427216727482044,3.31,0.0,0.0
19.70000000000448,3.31,0.42,0.03304781882657888,0.41999999999999965,0.03304781882657886,-0.18585796687739295,0.1903890494749795,-1.242234456729043,3.31,0.0,0.0
19.800000000004502,3.31,0.42,0.033215574499044484,0.41999999999999965,0.03321557449904446,-0.18585796687739295,0.1903890494749795,-1.2417472407098822,3.31,0.0,0.0
19.900000000004525,3.31,0.42,0.03338333017151009,0.41999999999999965,0.03338333017151007,-0.18585796687739295,0.1903890494749795,-1.241260024690721,3.31,0.0,0.0
20.000000000004547,3.31,0.42,0.03355108584397569,0.41999999999999965,0.03355108584397568,-0.18585796687739295,0.1903890494749795,-1.2407728086715597,3.31,0.0,0.0
20.10000000000457,3.31,0.42,0.03371884151644129,0.41999999999999965,0.03371884151644128,-0.18585796687739295,0.1903890494749795,-1.2402855926523988,3.31,0.0,0.0
20.200000000004593,3.31,0.42,0.033886597188906895,0.41999999999999965,0.03388659718890688,-0.18585796687739295,0.1903890494749795,-1.2397983766332374,3.31,0.0,0.0
20.300000000004616,3.31,0.42,0.0340543528613725,0.41999999999999965,0.03405435286137248,-0.18585796687739295,0.1903890494749795,-1.2393111606140765,3.31,0.0,0.0
20.40000000000464,3.31,0.42,0.0342221085338381,0.41999999999999965,0.03422210853383809,-0.18585796687739295,0.1903890494749795,-1.2388239445949152,3.31,0.0,0.0
20.50000000000466,3.31,0.42,0.0343898642063037,0.41999999999999965,0.034389864206303696,-0.18585796687739295,0.1903890494749795,-1.2383367285757543,3.31,0.0,0.0
20.600000000004684,3.31,0.42,0.03455761987876931,0.41999999999999965,0.0345576198787693,-0.18585796687739295,0.1903890494749795,-1.237849512556593,3.31,0.0,0.0
20.700000000004707,3.31,0.42,0.034725375551234915,0.41999999999999965,0.0347253755512349,-0.18585796687739295,0.1903890494749795,-1.237362296537432,3.31,0.0,0.0
20.80000000000473,3.31,0.42,0.03489313122370052,0.41999999999999965,0.0348931312237005,-0.18585796687739295,0.1903890494749795,-1.2368750805182707,3.31,0.0,0.0
20.900000000004752,3.31,0.42,0.03506088689616612,0.41999999999999965,0.035060886896166106,-0.18585796687739295,0.1903890494749795,-1.2363878644991098,3.31,0.0,0.0
21.000000000004775,3.31,0.42,0.03522864256863172,0.41999999999999965,0.035228642568631716,-0.18585796687739295,0.1903890494749795,-1.2359006484799484,3.31,0.0,0.0
21.100000000004798,3.31,0.42,0.035396398241097325,0.41999999999999965,0.03539639824109732,-0.18585796687739295,0.1903890494749795,-1.2354134324607875,3.31,0.0,0.0
21.20000000000482,3.31,0.42,0.03556415391356293,0.41999999999999965,0.03556415391356292,-0.18585796687739295,0.1903890494749795,-1.2349262164416261,3.31,0.0,0.0
21.300000000004843,3.31,0.42,0.03573190958602853,0.41999999999999965,0.035731909586028524,-0.18585796687739295,0.1903890494749795,-1.2344390004224652,3.31,0.0,0.0
21.400000000004866,3.31,0.42,0.03589966525849413,0.41999999999999965,0.03589966525849412,-0.18585796687739295,0.1903890494749795,-1.2339517844033039,3.31,0.0,0.0
21.50000000000489,3.31,0.42,0.036067420930959736,0.41999999999999965,0.03606742093095972,-0.18585796687739295,0.1903890494749795,-1.233464568384143,3.31,0.0,0.0
21.60000000000491,3.31,0.42,0.03623517660342534,0.41999999999999965,0.03623517660342533,-0.18585796687739295,0.1903890494749795,-1.2329773523649818,3.31,0.0,0.0
21.700000000004934,3.31,0.42,0.03640293227589094,0.41999999999999965,0.03640293227589094,-0.18585796687739295,0.1903890494749795,-1.2324901363458207,3.31,0.0,0.0
21.800000000004957,3.31,0.42,0.036570687948356544,0.41999999999999965,0.03657068794835654,-0.18585796687739295,0.1903890494749795,-1.2320029203266596,3.31,0.0,0.0
21.90000000000498,3.31,0.42,0.036738443620822146,0.41999999999999965,0.03673844362082213,-0.18585796687739295,0.1903890494749795,-1.2315157043074985,3.31,0.0,0.0
22.000000000005002,3.31,0.42,0.03690619929328775,0.41999999999999965,0.036906199293287735,-0.18585796687739295,0.1903890494749795,-1.2310284882883373,3.31,0.0,0.0
22.100000000005025,3.31,0.42,0.03707395496575335,0.41999999999999965,0.037073954965753345,-0.18585796687739295,0.1903890494749795,-1.2305412722691762,3.31,0.0,0.0
22.200000000005048,3.31,0.42,0.037241710638218954,0.41999999999999965,0.03724171063821895,-0.18585796687739295,0.1903890494749795,-1.230054056250015,3.31,0.0,0.0
22.30000000000507,3.31,0.42,0.03740946631068456,0.41999999999999965,0.03740946631068455,-0.18585796687739295,0.1903890494749795,-1.229566840230854,3.31,0.0,0.0
22.400000000005093,3.31,0.42,0.03757722198315016,0.41999999999999965,0.03757722198315014,-0.18585796687739295,0.1903890494749795,-1.2290796242116928,3.31,0.0,0.0
22.500000000005116,3.31,0.42,0.03774497765561576,0.41999999999999965,0.03774497765561574,-0.18585796687739295,0.1903890494749795,-1.2285924081925317,3.31,0.0,0.0
22.60000000000514,3.31,0.42,0.037912733328081365,0.41999999999999965,0.037912733328081344,-0.18585796687739295,0.1903890494749795,-1.2281051921733706,3.31,0.0,0.0
22.70000000000516,3.31,0.42,0.03808048900054697,0.41999999999999965,0.03808048900054695,-0.18585796687739295,0.1903890494749795,-1.2276179761542094,3.31,0.0,0.0
22.800000000005184,3.31,0.42,0.03824824467301257,0.41999999999999965,0.038248244673012556,-0.18585796687739295,0.1903890494749795,-1.2271307601350483,3.31,0.0,0.0
22.900000000005207,3.31,0.42,0.03841600034547817,0.41999999999999965,0.03841600034547816,-0.18585796687739295,0.1903890494749795,-1.2266435441158872,3.31,0.0,0.0
23.00000000000523,3.31,0.42,0.03858375601794378,0.41999999999999965,0.03858375601794377,-0.18585796687739295,0.1903890494749795,-1.226156328096726,3.31,0.0,0.0
23.100000000005252,3.31,0.42,0.038751511690409385,0.41999999999999965,0.038751511690409385,-0.18585796687739295,0.1903890494749795,-1.2256691120775647,3.31,0.0,0.0
23.200000000005275,3.31,0.42,0.03891926736287499,0.41999999999999965,0.03891926736287498,-0.18585796687739295,0.1903890494749795,-1.2251818960584038,3.31,0.0,0.0
23.300000000005298,3.31,0.42,0.03908702303534059,0.41999999999999965,0.039087023035340576,-0.18585796687739295,0.1903890494749795,-1.2246946800392426,3.31,0.0,0.0
23.40000000000532,3.31,0.42,0.03925477870780619,0.41999999999999965,0.03925477870780618,-0.18585796687739295,0.1903890494749795,-1.2242074640200815,3.31,0.0,0.0
23.500000000005343,3.31,0.42,0.039422534380271795,0.41999999999999965,0.03942253438027179,-0.18585796687739295,0.1903890494749795,-1.2237202480009204,3.31,0.0,0.0
23.600000000005366,3.31,0.42,0.0395902900527374,0.41999999999999965,0.03959029005273739,-0.18585796687739295,0.1903890494749795,-1.2232330319817593,3.31,0.0,0.0
23.70000000000539,3.31,0.42,0.039758045725203,0.41999999999999965,0.039758045725202994,-0.18585796687739295,0.1903890494749795,-1.2227458159625981,3.31,0.0,0.0
23.80000000000541,3.31,0.42,0.0399258013976686,0.41999999999999965,0.0399258013976686,-0.18585796687739295,0.1903890494749795,-1.222258599943437,3.31,0.0,0.0
23.900000000005434,3.31,0.42,0.040093557070134206,0.41999999999999965,0.040093557070134206,-0.18585796687739295,0.1903890494749795,-1.2217713839242759,3.31,0.0,0.0
24.000000000005457,3.31,0.42,0.04026131274259981,0.41999999999999965,0.040261312742599795,-0.18585796687739295,0.1903890494749795,-1.2212841679051147,3.31,0.0,0.0
24.10000000000548,3.31,0.42,0.04042906841506541,0.41999999999999965,0.0404290684150654,-0.18585796687739295,0.1903890494749795,-1.2207969518859536,3.31,0.0,0.0
24.200000000005502,3.31,0.42,0.040596824087531014,0.41999999999999965,0.04059682408753101,-0.18585796687739295,0.1903890494749795,-1.2203097358667925,3.31,0.0,0.0
24.300000000005525,3.31,0.42,0.040764579759996616,0.41999999999999965,0.040764579759996596,-0.18585796687739295,0.1903890494749795,-1.2198225198476313,3.31,0.0,0.0
24.400000000005548,3.31,0.42,0.04093233543246222,0.41999999999999965,0.04093233543246219,-0.18585796687739295,0.1903890494749795,-1.2193353038284704,3.31,0.0,0.0
24.50000000000557,3.31,0.42,0.04110009110492782,0.41999999999999965,0.0411000911049278,-0.18585796687739295,0.1903890494749795,-1.218848087809309,3.31,0.0,0.0
24.600000000005593,3.31,0.42,0.041267846777393424,0.41999999999999965,0.04126784677739342,-0.18585796687739295,0.1903890494749795,-1.218360871790148,3.31,0.0,0.0
24.700000000005616,3.31,0.42,0.04143560244985903,0.41999999999999965,0.04143560244985902,-0.18585796687739295,0.1903890494749795,-1.217873655770987,3.31,0.0,0.0
24.80000000000564,3.31,0.42,0.04160335812232463,0.41999999999999965,0.04160335812232462,-0.18585796687739295,0.1903890494749795,-1.2173864397518257,3.31,0.0,0.0
24.90000000000566,3.31,0.42,0.04177111379479023,0.41999999999999965,0.04177111379479021,-0.18585796687739295,0.1903890494749795,-1.2168992237326648,3.31,0.0,0.0
25.000000000005684,3.31,0.42,0.041938869467255835,0.41999999999999965,0.04193886946725581,-0.18585796687739295,0.1903890494749795,-1.2164120077135034,3.31,0.0,0.0
25.100000000005707,3.31,0.42,0.04210662513972144,0.41999999999999965,0.04210662513972142,-0.18585796687739295,0.1903890494749795,-1.2159247916943425,3.31,0.0,0.0
25.20000000000573,3.31,0.42,0.04227438081218704,0.41999999999999965,0.04227438081218702,-0.18585796687739295,0.1903890494749795,-1.2154375756751812,3.31,0.0,0.0
25.300000000005753,3.31,0.42,0.04244213648465264,0.41999999999999965,0.04244213648465263,-0.18585796687739295,0.1903890494749795,-1.2149503596560203,3.31,0.0,0.0
25.400000000005775,3.31,0.42,0.042609892157118245,0.41999999999999965,0.042609892157118245,-0.18585796687739295,0.1903890494749795,-1.214463143636859,3.31,0.0,0.0
25.500000000005798,3.31,0.42,0.042777647829583855,0.41999999999999965,0.04277764782958384,-0.18585796687739295,0.1903890494749795,-1.213975927617698,3.31,0.0,0.0
25.60000000000582,3.31,0.42,0.04294540350204946,0.41999999999999965,0.04294540350204944,-0.18585796687739295,0.1903890494749795,-1.2134887115985367,3.31,0.0,0.0
25.700000000005844,3.31,0.42,0.04311315917451506,0.41999999999999965,0.04311315917451504,-0.18585796687739295,0.1903890494749795,-1.2130014955793758,3.31,0.0,0.0
25.800000000005866,3.31,0.42,0.04328091484698066,0.41999999999999965,0.04328091484698064,-0.18585796687739295,0.1903890494749795,-1.2125142795602144,3.31,0.0,0.0
25.90000000000589,3.31,0.42,0.043448670519446266,0.41999999999999965,0.04344867051944625,-0.18585796687739295,0.1903890494749795,-1.2120270635410535,3.31,0.0,0.0
26.00000000000591,3.31,0.42,0.04361642619191187,0.41999999999999965,0.04361642619191187,-0.18585796687739295,0.1903890494749795,-1.2115398475218921,3.31,0.0,0.0
26.100000000005934,3.31,0.42,0.04378418186437747,0.41999999999999965,0.043784181864377464,-0.18585796687739295,0.1903890494749795,-1.2110526315027312,3.31,0.0,0.0
26.200000000005957,3.31,0.42,0.04395193753684307,0.41999999999999965,0.04395193753684306,-0.18585796687739295,0.1903890494749795,-1.2105654154835699,3.31,0.0,0.0
26.30000000000598,3.31,0.42,0.044119693209308676,0.41999999999999965,0.044119693209308655,-0.18585796687739295,0.1903890494749795,-1.210078199464409,3.31,0.0,0.0
26.400000000006003,3.31,0.42,0.04428744888177428,0.41999999999999965,0.044287448881774265,-0.18585796687739295,0.1903890494749795,-1.2095909834452478,3.31,0.0,0.0
26.500000000006025,3.31,0.42,0.04445520455423988,0.41999999999999965,0.044455204554239874,-0.18585796687739295,0.1903890494749795,-1.2091037674260867,3.31,0.0,0.0
26.600000000006048,3.31,0.42,0.044622960226705484,0.41999999999999965,0.04462296022670548,-0.18585796687739295,0.1903890494749795,-1.2086165514069256,3.31,0.0,0.0
26.70000000000607,3.31,0.42,0.04479071589917109,0.41999999999999965,0.04479071589917107,-0.18585796687739295,0.1903890494749795,-1.2081293353877645,3.31,0.0,0.0
26.800000000006094,3.31,0.42,0.04495847157163669,0.41999999999999965,0.04495847157163667,-0.18585796687739295,0.1903890494749795,-1.2076421193686033,3.31,0.0,0.0
26.900000000006116,3.31,0.42,0.04512622724410229,0.41999999999999965,0.045126227244102285,-0.18585796687739295,0.1903890494749795,-1.2071549033494422,3.31,0.0,0.0
27.00000000000614,3.31,0.42,0.045293982916567894,0.41999999999999965,0.04529398291656789,-0.18585796687739295,0.1903890494749795,-1.206667687330281,3.31,0.0,0.0
27.100000000006162,3.31,0.42,0.0454617385890335,0.41999999999999965,0.04546173858903348,-0.18585796687739295,0.1903890494749795,-1.20618047131112,3.31,0.0,0.0
27.200000000006185,3.31,0.42,0.0456294942614991,0.41999999999999965,0.04562949426149908,-0.18585796687739295,0.1903890494749795,-1.2056932552919588,3.31,0.0,0.0
27.300000000006207,3.31,0.42,0.0457972499339647,0.41999999999999965,0.04579724993396468,-0.18585796687739295,0.1903890494749795,-1.2052060392727977,3.31,0.0,0.0
27.40000000000623,3.31,0.42,0.045965005606430305,0.41999999999999965,0.04596500560643029,-0.18585796687739295,0.1903890494749795,-1.2047188232536366,3.31,0.0,0.0
27.500000000006253,3.31,0.42,0.04613276127889591,0.41999999999999965,0.04613276127889591,-0.18585796687739295,0.1903890494749795,-1.2042316072344752,3.31,0.0,0.0
27.600000000006276,3.31,0.42,0.04630051695136151,0.41999999999999965,0.0463005169513615,-0.18585796687739295,0.1903890494749795,-1.2037443912153143,3.31,0.0,0.0
27.7000000000063,3.31,0.42,0.04646827262382711,0.41999999999999965,0.0464682726238271,-0.18585796687739295,0.1903890494749795,-1.2032571751961532,3.31,0.0,0.0
27.80000000000632,3.31,0.42,0.046636028296292716,0.41999999999999965,0.046636028296292695,-0.18585796687739295,0.1903890494749795,-1.202769959176992,3.31,0.0,0.0
27.900000000006344,3.31,0.42,0.046803783968758325,0.41999999999999965,0.04680378396875831,-0.18585796687739295,0.1903890494749795,-1.2022827431578307,3.31,0.0,0.0
28.000000000006366,3.31,0.42,0.04697153964122393,0.41999999999999965,0.04697153964122392,-0.18585796687739295,0.1903890494749795,-1.2017955271386698,3.31,0.0,0.0
28.10000000000639,3.31,0.42,0.04713929531368953,0.41999999999999965,0.047139295313689523,-0.18585796687739295,0.1903890494749795,-1.2013083111195086,3.31,0.0,0.0
28.200000000006412,3.31,0.42,0.04730705098615513,0.41999999999999965,0.04730705098615512,-0.18585796687739295,0.1903890494749795,-1.2008210951003475,3.31,0.0,0.0
28.300000000006435,3.31,0.42,0.047474806658620736,0.41999999999999965,0.04747480665862072,-0.18585796687739295,0.1903890494749795,-1.2003338790811864,3.31,0.0,0.0
28.400000000006457,3.31,0.42,0.04764256233108634,0.41999999999999965,0.04764256233108632,-0.18585796687739295,0.1903890494749795,-1.1998466630620253,3.31,0.0,0.0
28.50000000000648,3.31,0.42,0.04781031800355194,0.41999999999999965,0.04781031800355193,-0.18585796687739295,0.1903890494749795,-1.1993594470428641,3.31,0.0,0.0
28.600000000006503,3.31,0.42,0.047978073676017544,0.41999999999999965,0.04797807367601754,-0.18585796687739295,0.1903890494749795,-1.198872231023703,3.31,0.0,0.0
28.700000000006526,3.31,0.42,0.048145829348483146,0.41999999999999965,0.04814582934848314,-0.18585796687739295,0.1903890494749795,-1.1983850150045419,3.31,0.0,0.0
28.80000000000655,3.31,0.42,0.04831358502094875,0.41999999999999965,0.04831358502094874,-0.18585796687739295,0.1903890494749795,-1.1978977989853807,3.31,0.0,0.0
28.90000000000657,3.31,0.42,0.04848134069341435,0.41999999999999965,0.04848134069341435,-0.18585796687739295,0.1903890494749795,-1.1974105829662196,3.31,0.0,0.0
29.000000000006594,3.31,0.42,0.048649096365879954,0.41999999999999965,0.04864909636587995,-0.18585796687739295,0.1903890494749795,-1.1969233669470585,3.31,0.0,0.0
29.100000000006617,3.31,0.42,0.04881685203834556,0.41999999999999965,0.048816852038345536,-0.18585796687739295,0.1903890494749795,-1.1964361509278973,3.31,0.0,0.0
29.20000000000664,3.31,0.42,0.04898460771081116,0.41999999999999965,0.04898460771081113,-0.18585796687739295,0.1903890494749795,-1.1959489349087362,3.31,0.0,0.0
29.300000000006662,3.31,0.42,0.04915236338327676,0.41999999999999965,0.04915236338327674,-0.18585796687739295,0.1903890494749795,-1.1954617188895753,3.31,0.0,0.0
29.400000000006685,3.31,0.42,0.049320119055742365,0.41999999999999965,0.049320119055742344,-0.18585796687739295,0.1903890494749795,-1.194974502870414,3.31,0.0,0.0
29.500000000006708,3.31,0.42,0.04948787472820797,0.41999999999999965,0.049487874728207946,-0.18585796687739295,0.1903890494749795,-1.194487286851253,3.31,0.0,0.0
29.60000000000673,3.31,0.42,0.04965563040067357,0.41999999999999965,0.049655630400673556,-0.18585796687739295,0.1903890494749795,-1.1940000708320917,3.31,0.0,0.0
29.700000000006753,3.31,0.42,0.04982338607313917,0.41999999999999965,0.04982338607313916,-0.18585796687739295,0.1903890494749795,-1.1935128548129308,3.31,0.0,0.0
29.800000000006776,3.31,0.42,0.049991141745604775,0.41999999999999965,0.049991141745604754,-0.18585796687739295,0.1903890494749795,-1.1930256387937694,3.31,0.0,0.0
29.9000000000068,3.31,0.42,0.05015889741807038,0.41999999999999965,0.05015889741807035,-0.18585796687739295,0.1903890494749795,-1.1925384227746085,3.31,0.0,0.0
30.00000000000682,3.31,0.42,0.05032665309053598,0.41999999999999965,0.05032665309053597,-0.18585796687739295,0.1903890494749795,-1.1920512067554472,3.31,0.0,0.0
30.100000000006844,3.31,0.42,0.05049440876300158,0.41999999999999965,0.05049440876300156,-0.18585796687739295,0.1903890494749795,-1.1915639907362863,3.31,0.0,0.0
30.200000000006867,3.31,0.42,0.050662164435467186,0.41999999999999965,0.05066216443546716,-0.18585796687739295,0.1903890494749795,-1.191076774717125,3.31,0.0,0.0
30.30000000000689,3.31,0.42,0.05082992010793279,0.41999999999999965,0.050829920107932774,-0.18585796687739295,0.1903890494749795,-1.1905895586979638,3.31,0.0,0.0
30.400000000006912,3.31,0.42,0.0509976757803984,0.41999999999999965,0.05099767578039839,-0.18585796687739295,0.1903890494749795,-1.1901023426788027,3.31,0.0,0.0
30.500000000006935,3.31,0.42,0.051165431452864,0.41999999999999965,0.05116543145286399,-0.18585796687739295,0.1903890494749795,-1.1896151266596415,3.31,0.0,0.0
30.600000000006958,3.31,0.42,0.0513331871253296,0.41999999999999965,0.051333187125329575,-0.18585796687739295,0.1903890494749795,-1.1891279106404804,3.31,0.0,0.0
30.70000000000698,3.31,0.42,0.051500942797795206,0.41999999999999965,0.05150094279779518,-0.18585796687739295,0.1903890494749795,-1.1886406946213195,3.31,0.0,0.0
30.800000000007003,3.31,0.42,0.05166869847026081,0.41999999999999965,0.051668698470260795,-0.18585796687739295,0.1903890494749795,-1.1881534786021581,3.31,0.0,0.0
30.900000000007026,3.31,0.42,0.05183645414272641,0.41999999999999965,0.0518364541427264,-0.18585796687739295,0.1903890494749795,-1.187666262582997,3.31,0.0,0.0
31.00000000000705,3.31,0.42,0.052004209815192014,0.41999999999999965,0.05200420981519199,-0.18585796687739295,0.1903890494749795,-1.187179046563836,3.31,0.0,0.0
31.10000000000707,3.31,0.42,0.052171965487657616,0.41999999999999965,0.05217196548765759,-0.18585796687739295,0.1903890494749795,-1.186691830544675,3.31,0.0,0.0
31.200000000007094,3.31,0.42,0.05233972116012322,0.41999999999999965,0.0523397211601232,-0.18585796687739295,0.1903890494749795,-1.1862046145255138,3.31,0.0,0.0
31.300000000007117,3.31,0.42,0.05250747683258882,0.41999999999999965,0.05250747683258881,-0.18585796687739295,0.1903890494749795,-1.1857173985063525,3.31,0.0,0.0
31.40000000000714,3.31,0.42,0.052675232505054424,0.41999999999999965,0.0526752325050544,-0.18585796687739295,0.1903890494749795,-1.1852301824871916,3.31,0.0,0.0
31.500000000007162,3.31,0.42,0.05284298817752003,0.41999999999999965,0.05284298817751999,-0.18585796687739295,0.1903890494749795,-1.1847429664680305,3.31,0.0,0.0
31.600000000007185,3.31,0.42,0.05301074384998563,0.41999999999999965,0.0530107438499856,-0.18585796687739295,0.1903890494749795,-1.1842557504488693,3.31,0.0,0.0
31.700000000007208,3.31,0.42,0.05317849952245123,0.41999999999999965,0.05317849952245121,-0.18585796687739295,0.1903890494749795,-1.1837685344297082,3.31,0.0,0.0
31.80000000000723,3.31,0.42,0.053346255194916835,0.41999999999999965,0.05334625519491682,-0.18585796687739295,0.1903890494749795,-1.183281318410547,3.31,0.0,0.0
31.900000000007253,3.31,0.42,0.05351401086738244,0.41999999999999965,0.053514010867382424,-0.18585796687739295,0.1903890494749795,-1.1827941023913857,3.31,0.0,0.0
32.000000000007276,3.31,0.42,0.05368176653984804,0.41999999999999965,0.05368176653984802,-0.18585796687739295,0.1903890494749795,-1.1823068863722248,3.31,0.0,0.0
32.1000000000073,3.31,0.42,0.05384952221231364,0.41999999999999965,0.053849522212313615,-0.18585796687739295,0.1903890494749795,-1.1818196703530637,3.31,0.0,0.0
32.20000000000732,3.31,0.42,0.054017277884779245,0.41999999999999965,0.05401727788477921,-0.18585796687739295,0.1903890494749795,-1.1813324543339025,3.31,0.0,0.0
32.300000000007344,3.31,0.42,0.05418503355724485,0.41999999999999965,0.05418503355724483,-0.18585796687739295,0.1903890494749795,-1.1808452383147412,3.31,0.0,0.0
32.40000000000737,3.31,0.42,0.05435278922971045,0.41999999999999965,0.05435278922971044,-0.18585796687739295,0.1903890494749795,-1.1803580222955803,3.31,0.0,0.0
32.50000000000739,3.31,0.42,0.05452054490217605,0.41999999999999965,0.054520544902176046,-0.18585796687739295,0.1903890494749795,-1.179870806276419,3.31,0.0,0.0
32.60000000000741,3.31,0.42,0.054688300574641656,0.41999999999999965,0.05468830057464165,-0.18585796687739295,0.1903890494749795,-1.179383590257258,3.31,0.0,0.0
32.700000000007435,3.31,0.42,0.05485605624710726,0.41999999999999965,0.054856056247107245,-0.18585796687739295,0.1903890494749795,-1.178896374238097,3.31,0.0,0.0
32.80000000000746,3.31,0.42,0.05502381191957287,0.41999999999999965,0.05502381191957284,-0.18585796687739295,0.1903890494749795,-1.1784091582189358,3.31,0.0,0.0
32.90000000000748,3.31,0.42,0.05519156759203847,0.41999999999999965,0.05519156759203845,-0.18585796687739295,0.1903890494749795,-1.1779219421997746,3.31,0.0,0.0
33.0000000000075,3.31,0.42,0.05535932326450407,0.41999999999999965,0.05535932326450406,-0.18585796687739295,0.1903890494749795,-1.1774347261806135,3.31,0.0,0.0
33.100000000007526,3.31,0.42,0.055527078936969676,0.41999999999999965,0.05552707893696966,-0.18585796687739295,0.1903890494749795,-1.1769475101614524,3.31,0.0,0.0
33.20000000000755,3.31,0.42,0.05569483460943528,0.41999999999999965,0.05569483460943526,-0.18585796687739295,0.1903890494749795,-1.1764602941422913,3.31,0.0,0.0
33.30000000000757,3.31,0.42,0.05586259028190088,0.41999999999999965,0.05586259028190086,-0.18585796687739295,0.1903890494749795,-1.1759730781231301,3.31,0.0,0.0
33.400000000007594,3.31,0.42,0.056030345954366484,0.41999999999999965,0.05603034595436646,-0.18585796687739295,0.1903890494749795,-1.175485862103969,3.31,0.0,0.0
33.50000000000762,3.31,0.42,0.05619810162683209,0.41999999999999965,0.05619810162683207,-0.18585796687739295,0.1903890494749795,-1.1749986460848079,3.31,0.0,0.0
33.60000000000764,3.31,0.42,0.05636585729929769,0.41999999999999965,0.05636585729929767,-0.18585796687739295,0.1903890494749795,-1.1745114300656467,3.31,0.0,0.0
33.70000000000766,3.31,0.42,0.05653361297176329,0.41999999999999965,0.056533612971763264,-0.18585796687739295,0.1903890494749795,-1.1740242140464856,3.31,0.0,0.0
33.800000000007685,3.31,0.42,0.056701368644228894,0.41999999999999965,0.05670136864422887,-0.18585796687739295,0.1903890494749795,-1.1735369980273245,3.31,0.0,0.0
33.90000000000771,3.31,0.42,0.0568691243166945,0.41999999999999965,0.056869124316694476,-0.18585796687739295,0.1903890494749795,-1.1730497820081633,3.31,0.0,0.0
34.00000000000773,3.31,0.42,0.0570368799891601,0.41999999999999965,0.05703687998916008,-0.18585796687739295,0.1903890494749795,-1.1725625659890022,3.31,0.0,0.0
34.10000000000775,3.31,0.42,0.0572046356616257,0.41999999999999965,0.05720463566162569,-0.18585796687739295,0.1903890494749795,-1.172075349969841,3.31,0.0,0.0
34.200000000007776,3.31,0.42,0.057372391334091305,0.41999999999999965,0.05737239133409129,-0.18585796687739295,0.1903890494749795,-1.17158813395068,3.31,0.0,0.0
34.3000000000078,3.31,0.42,0.05754014700655691,0.41999999999999965,0.057540147006556894,-0.18585796687739295,0.1903890494749795,-1.1711009179315188,3.31,0.0,0.0
34.40000000000782,3.31,0.42,0.05770790267902251,0.41999999999999965,0.05770790267902249,-0.18585796687739295,0.1903890494749795,-1.1706137019123577,3.31,0.0,0.0
34.500000000007844,3.31,0.42,0.05787565835148811,0.41999999999999965,0.05787565835148809,-0.18585796687739295,0.1903890494749795,-1.1701264858931966,3.31,0.0,0.0
34.60000000000787,3.31,0.42,0.058043414023953716,0.41999999999999965,0.058043414023953695,-0.18585796687739295,0.1903890494749795,-1.1696392698740354,3.31,0.0,0.0
34.70000000000789,3.31,0.42,0.05821116969641932,0.41999999999999965,0.058211169696419304,-0.18585796687739295,0.1903890494749795,-1.1691520538548743,3.31,0.0,0.0
34.80000000000791,3.31,0.42,0.05837892536888492,0.41999999999999965,0.05837892536888491,-0.18585796687739295,0.1903890494749795,-1.1686648378357132,3.31,0.0,0.0
34.900000000007935,3.31,0.42,0.05854668104135052,0.41999999999999965,0.05854668104135051,-0.18585796687739295,0.1903890494749795,-1.168177621816552,3.31,0.0,0.0
35.00000000000796,3.31,0.42,0.058714436713816126,0.41999999999999965,0.0587144367138161,-0.18585796687739295,0.1903890494749795,-1.167690405797391,3.31,0.0,0.0
35.10000000000798,3.31,0.42,0.05888219238628173,0.41999999999999965,0.0588821923862817,-0.18585796687739295,0.1903890494749795,-1.1672031897782298,3.31,0.0,0.0
35.200000000008004,3.31,0.42,0.05904994805874733,0.41999999999999965,0.059049948058747304,-0.18585796687739295,0.1903890494749795,-1.1667159737590687,3.31,0.0,0.0
35.300000000008026,3.31,0.42,0.05921770373121294,0.41999999999999965,0.05921770373121291,-0.18585796687739295,0.1903890494749795,-1.1662287577399075,3.31,0.0,0.0
35.40000000000805,3.31,0.42,0.059385459403678544,0.41999999999999965,0.05938545940367852,-0.18585796687739295,0.1903890494749795,-1.1657415417207464,3.31,0.0,0.0
35.50000000000807,3.31,0.42,0.059553215076144146,0.41999999999999965,0.05955321507614412,-0.18585796687739295,0.1903890494749795,-1.1652543257015853,3.31,0.0,0.0
35.600000000008095,3.31,0.42,0.05972097074860975,0.41999999999999965,0.059720970748609714,-0.18585796687739295,0.1903890494749795,-1.1647671096824241,3.31,0.0,0.0
35.70000000000812,3.31,0.42,0.05988872642107535,0.41999999999999965,0.05988872642107533,-0.18585796687739295,0.1903890494749795,-1.164279893663263,3.31,0.0,0.0
35.80000000000814,3.31,0.42,0.060056482093540954,0.41999999999999965,0.06005648209354095,-0.18585796687739295,0.1903890494749795,-1.163792677644102,3.31,0.0,0.0
35.90000000000816,3.31,0.42,0.06022423776600656,0.41999999999999965,0.06022423776600655,-0.18585796687739295,0.1903890494749795,-1.1633054616249408,3.31,0.0,0.0
36.000000000008185,3.31,0.42,0.06039199343847216,0.41999999999999965,0.060391993438472145,-0.18585796687739295,0.1903890494749795,-1.1628182456057798,3.31,0.0,0.0
36.10000000000821,3.31,0.42,0.06055974911093776,0.41999999999999965,0.06055974911093774,-0.18585796687739295,0.1903890494749795,-1.1623310295866185,3.31,0.0,0.0
36.20000000000823,3.31,0.42,0.060727504783403365,0.41999999999999965,0.060727504783403344,-0.18585796687739295,0.1903890494749795,-1.1618438135674576,3.31,0.0,0.0
36.300000000008254,3.31,0.42,0.06089526045586897,0.41999999999999965,0.06089526045586894,-0.18585796687739295,0.1903890494749795,-1.1613565975482962,3.31,0.0,0.0
36.400000000008276,3.31,0.42,0.06106301612833457,0.41999999999999965,0.06106301612833454,-0.18585796687739295,0.1903890494749795,-1.1608693815291353,3.31,0.0,0.0
36.5000000000083,3.31,0.42,0.06123077180080017,0.41999999999999965,0.061230771800800145,-0.18585796687739295,0.1903890494749795,-1.160382165509974,3.31,0.0,0.0
36.60000000000832,3.31,0.42,0.061398527473265775,0.41999999999999965,0.06139852747326576,-0.18585796687739295,0.1903890494749795,-1.159894949490813,3.31,0.0,0.0
36.700000000008345,3.31,0.42,0.06156628314573138,0.41999999999999965,0.06156628314573137,-0.18585796687739295,0.1903890494749795,-1.1594077334716517,3.31,0.0,0.0
36.80000000000837,3.31,0.42,0.06173403881819698,0.41999999999999965,0.061734038818196973,-0.18585796687739295,0.1903890494749795,-1.1589205174524906,3.31,0.0,0.0
36.90000000000839,3.31,0.42,0.06190179449066258,0.41999999999999965,0.06190179449066256,-0.18585796687739295,0.1903890494749795,-1.1584333014333295,3.31,0.0,0.0
37.00000000000841,3.31,0.42,0.062069550163128186,0.41999999999999965,0.06206955016312816,-0.18585796687739295,0.1903890494749795,-1.1579460854141685,3.31,0.0,0.0
37.100000000008436,3.31,0.42,0.06223730583559379,0.41999999999999965,0.06223730583559376,-0.18585796687739295,0.1903890494749795,-1.1574588693950072,3.31,0.0,0.0
37.20000000000846,3.31,0.42,0.06240506150805939,0.41999999999999965,0.06240506150805938,-0.18585796687739295,0.1903890494749795,-1.1569716533758463,3.31,0.0,0.0
37.30000000000848,3.31,0.42,0.062572817180525,0.41999999999999965,0.06257281718052499,-0.18585796687739295,0.1903890494749795,-1.156484437356685,3.31,0.0,0.0
37.400000000008504,3.31,0.42,0.0627405728529906,0.41999999999999965,0.06274057285299059,-0.18585796687739295,0.1903890494749795,-1.155997221337524,3.31,0.0,0.0
37.50000000000853,3.31,0.42,0.0629083285254562,0.41999999999999965,0.06290832852545619,-0.18585796687739295,0.1903890494749795,-1.155510005318363,3.31,0.0,0.0
37.60000000000855,3.31,0.42,0.06307608419792181,0.41999999999999965,0.0630760841979218,-0.18585796687739295,0.1903890494749795,-1.1550227892992015,3.31,0.0,0.0
37.70000000000857,3.31,0.42,0.06324383987038741,0.41999999999999965,0.0632438398703874,-0.18585796687739295,0.1903890494749795,-1.1545355732800406,3.31,0.0,0.0
37.800000000008595,3.31,0.42,0.06341159554285301,0.41999999999999965,0.06341159554285299,-0.18585796687739295,0.1903890494749795,-1.1540483572608795,3.31,0.0,0.0
37.90000000000862,3.31,0.42,0.06357935121531862,0.41999999999999965,0.06357935121531859,-0.18585796687739295,0.1903890494749795,-1.1535611412417184,3.31,0.0,0.0
38.00000000000864,3.31,0.42,0.06374710688778422,0.41999999999999965,0.06374710688778419,-0.18585796687739295,0.1903890494749795,-1.1530739252225572,3.31,0.0,0.0
38.10000000000866,3.31,0.42,0.06391486256024982,0.41999999999999965,0.0639148625602498,-0.18585796687739295,0.1903890494749795,-1.1525867092033961,3.31,0.0,0.0
38.200000000008686,3.31,0.42,0.06408261823271542,0.41999999999999965,0.0640826182327154,-0.18585796687739295,0.1903890494749795,-1.152099493184235,3.31,0.0,0.0
38.30000000000871,3.31,0.42,0.06425037390518103,0.41999999999999965,0.064250373905181,-0.18585796687739295,0.1903890494749795,-1.1516122771650739,3.31,0.0,0.0
38.40000000000873,3.31,0.42,0.06441812957764663,0.41999999999999965,0.0644181295776466,-0.18585796687739295,0.1903890494749795,-1.1511250611459127,3.31,0.0,0.0
38.500000000008754,3.31,0.42,0.06458588525011223,0.41999999999999965,0.06458588525011219,-0.18585796687739295,0.1903890494749795,-1.1506378451267516,3.31,0.0,0.0
38.60000000000878,3.31,0.42,0.06475364092257783,0.41999999999999965,0.0647536409225778,-0.18585796687739295,0.1903890494749795,-1.1501506291075905,3.31,0.0,0.0
38.7000000000088,3.31,0.42,0.06492139659504344,0.41999999999999965,0.06492139659504341,-0.18585796687739295,0.1903890494749795,-1.1496634130884293,3.31,0.0,0.0
38.80000000000882,3.31,0.42,0.06508915226750904,0.41999999999999965,0.06508915226750903,-0.18585796687739295,0.1903890494749795,-1.149176197069268,3.31,0.0,0.0
38.900000000008845,3.31,0.42,0.06525690793997464,0.41999999999999965,0.06525690793997463,-0.18585796687739295,0.1903890494749795,-1.148688981050107,3.31,0.0,0.0
39.00000000000887,3.31,0.42,0.06542466361244025,0.41999999999999965,0.06542466361244022,-0.18585796687739295,0.1903890494749795,-1.148201765030946,3.31,0.0,0.0
39.10000000000889,3.31,0.42,0.06559241928490585,0.41999999999999965,0.0655924192849058,-0.18585796687739295,0.1903890494749795,-1.1477145490117848,3.31,0.0,0.0
39.20000000000891,3.31,0.42,0.06576017495737145,0.41999999999999965,0.06576017495737141,-0.18585796687739295,0.1903890494749795,-1.1472273329926237,3.31,0.0,0.0
39.300000000008936,3.31,0.42,0.06592793062983705,0.41999999999999965,0.06592793062983701,-0.18585796687739295,0.1903890494749795,-1.1467401169734628,3.31,0.0,0.0
39.40000000000896,3.31,0.42,0.06609568630230266,0.41999999999999965,0.06609568630230263,-0.18585796687739295,0.1903890494749795,-1.1462529009543014,3.31,0.0,0.0
39.50000000000898,3.31,0.42,0.06626344197476826,0.41999999999999965,0.06626344197476824,-0.18585796687739295,0.1903890494749795,-1.1457656849351403,3.31,0.0,0.0
39.600000000009004,3.31,0.42,0.06643119764723386,0.41999999999999965,0.06643119764723385,-0.18585796687739295,0.1903890494749795,-1.1452784689159792,3.31,0.0,0.0
39.70000000000903,3.31,0.42,0.06659895331969946,0.41999999999999965,0.06659895331969944,-0.18585796687739295,0.1903890494749795,-1.144791252896818,3.31,0.0,0.0
39.80000000000905,3.31,0.42,0.06676670899216507,0.41999999999999965,0.06676670899216502,-0.18585796687739295,0.1903890494749795,-1.144304036877657,3.31,0.0,0.0
39.90000000000907,3.31,0.42,0.06693446466463067,0.41999999999999965,0.06693446466463063,-0.18585796687739295,0.1903890494749795,-1.1438168208584958,3.31,0.0,0.0
40.000000000009095,3.31,0.42,0.06710222033709627,0.41999999999999965,0.06710222033709626,-0.18585796687739295,0.1903890494749795,-1.1433296048393347,3.31,0.0,0.0
40.10000000000912,3.31,0.42,0.06726997600956187,0.41999999999999965,0.06726997600956186,-0.18585796687739295,0.1903890494749795,-1.1428423888201735,3.31,0.0,0.0
40.20000000000914,3.31,0.42,0.06743773168202748,0.41999999999999965,0.06743773168202744,-0.18585796687739295,0.1903890494749795,-1.1423551728010124,3.31,0.0,0.0
40.30000000000916,3.31,0.42,0.06760548735449308,0.41999999999999965,0.06760548735449302,-0.18585796687739295,0.1903890494749795,-1.1418679567818515,3.31,0.0,0.0
40.400000000009186,3.31,0.42,0.06777324302695868,0.41999999999999965,0.06777324302695864,-0.18585796687739295,0.1903890494749795,-1.1413807407626904,3.31,0.0,0.0
40.50000000000921,3.31,0.42,0.06794099869942428,0.41999999999999965,0.06794099869942426,-0.18585796687739295,0.1903890494749795,-1.140893524743529,3.31,0.0,0.0
40.60000000000923,3.31,0.42,0.06810875437188989,0.41999999999999965,0.06810875437188986,-0.18585796687739295,0.1903890494749795,-1.140406308724368,3.31,0.0,0.0
40.700000000009254,3.31,0.42,0.06827651004435549,0.41999999999999965,0.06827651004435546,-0.18585796687739295,0.1903890494749795,-1.1399190927052067,3.31,0.0,0.0
40.80000000000928,3.31,0.42,0.06844426571682109,0.41999999999999965,0.06844426571682106,-0.18585796687739295,0.1903890494749795,-1.1394318766860458,3.31,0.0,0.0
40.9000000000093,3.31,0.42,0.0686120213892867,0.41999999999999965,0.06861202138928668,-0.18585796687739295,0.1903890494749795,-1.1389446606668845,3.31,0.0,0.0
41.00000000000932,3.31,0.42,0.0687797770617523,0.41999999999999965,0.06877977706175228,-0.18585796687739295,0.1903890494749795,-1.1384574446477236,3.31,0.0,0.0
41.100000000009345,3.31,0.42,0.0689475327342179,0.41999999999999965,0.06894753273421787,-0.18585796687739295,0.1903890494749795,-1.1379702286285622,3.31,0.0,0.0
41.20000000000937,3.31,0.42,0.0691152884066835,0.41999999999999965,0.06911528840668348,-0.18585796687739295,0.1903890494749795,-1.1374830126094013,3.31,0.0,0.0
41.30000000000939,3.31,0.42,0.0692830440791491,0.41999999999999965,0.06928304407914908,-0.18585796687739295,0.1903890494749795,-1.13699579659024,3.31,0.0,0.0
41.40000000000941,3.31,0.42,0.06945079975161472,0.41999999999999965,0.0694507997516147,-0.18585796687739295,0.1903890494749795,-1.136508580571079,3.31,0.0,0.0
41.500000000009436,3.31,0.42,0.06961855542408033,0.41999999999999965,0.06961855542408031,-0.18585796687739295,0.1903890494749795,-1.1360213645519177,3.31,0.0,0.0
41.60000000000946,3.31,0.42,0.06978631109654593,0.41999999999999965,0.06978631109654591,-0.18585796687739295,0.1903890494749795,-1.1355341485327566,3.31,0.0,0.0
41.70000000000948,3.31,0.42,0.06995406676901153,0.41999999999999965,0.0699540667690115,-0.18585796687739295,0.1903890494749795,-1.1350469325135955,3.31,0.0,0.0
41.800000000009504,3.31,0.42,0.07012182244147713,0.41999999999999965,0.0701218224414771,-0.18585796687739295,0.1903890494749795,-1.1345597164944345,3.31,0.0,0.0
41.90000000000953,3.31,0.42,0.07028957811394274,0.41999999999999965,0.07028957811394272,-0.18585796687739295,0.1903890494749795,-1.1340725004752732,3.31,0.0,0.0
42.00000000000955,3.31,0.42,0.07045733378640834,0.41999999999999965,0.07045733378640832,-0.18585796687739295,0.1903890494749795,-1.133585284456112,3.31,0.0,0.0
42.10000000000957,3.31,0.42,0.07062508945887394,0.41999999999999965,0.07062508945887391,-0.18585796687739295,0.1903890494749795,-1.1330980684369512,3.31,0.0,0.0
42.200000000009595,3.31,0.42,0.07079284513133954,0.41999999999999965,0.07079284513133952,-0.18585796687739295,0.1903890494749795,-1.13261085241779,3.31,0.0,0.0
42.30000000000962,3.31,0.42,0.07096060080380515,0.41999999999999965,0.07096060080380515,-0.18585796687739295,0.1903890494749795,-1.132123636398629,3.31,0.0,0.0
42.40000000000964,3.31,0.42,0.07112835647627075,0.41999999999999965,0.07112835647627076,-0.18585796687739295,0.1903890494749795,-1.1316364203794675,3.31,0.0,0.0
42.50000000000966,3.31,0.42,0.07129611214873635,0.41999999999999965,0.07129611214873635,-0.18585796687739295,0.1903890494749795,-1.1311492043603064,3.31,0.0,0.0
42.600000000009686,3.31,0.42,0.07146386782120195,0.41999999999999965,0.07146386782120193,-0.18585796687739295,0.1903890494749795,-1.1306619883411455,3.31,0.0,0.0
42.70000000000971,3.31,0.42,0.07163162349366756,0.41999999999999965,0.07163162349366752,-0.18585796687739295,0.1903890494749795,-1.1301747723219844,3.31,0.0,0.0
42.80000000000973,3.31,0.42,0.07179937916613316,0.41999999999999965,0.07179937916613312,-0.18585796687739295,0.1903890494749795,-1.1296875563028232,3.31,0.0,0.0
42.900000000009754,3.31,0.42,0.07196713483859876,0.41999999999999965,0.07196713483859873,-0.18585796687739295,0.1903890494749795,-1.1292003402836621,3.31,0.0,0.0
43.00000000000978,3.31,0.42,0.07213489051106436,0.41999999999999965,0.07213489051106435,-0.18585796687739295,0.1903890494749795,-1.1287131242645008,3.31,0.0,0.0
43.1000000000098,3.31,0.42,0.07230264618352997,0.41999999999999965,0.07230264618352997,-0.18585796687739295,0.1903890494749795,-1.1282259082453399,3.31,0.0,0.0
43.20000000000982,3.31,0.42,0.07247040185599557,0.41999999999999965,0.07247040185599556,-0.18585796687739295,0.1903890494749795,-1.1277386922261785,3.31,0.0,0.0
43.300000000009845,3.31,0.42,0.07263815752846117,0.41999999999999965,0.07263815752846114,-0.18585796687739295,0.1903890494749795,-1.1272514762070176,3.31,0.0,0.0
43.40000000000987,3.31,0.42,0.07280591320092678,0.41999999999999965,0.07280591320092673,-0.18585796687739295,0.1903890494749795,-1.1267642601878565,3.31,0.0,0.0
43.50000000000989,3.31,0.42,0.07297366887339238,0.41999999999999965,0.07297366887339234,-0.18585796687739295,0.1903890494749795,-1.1262770441686953,3.31,0.0,0.0
43.60000000000991,3.31,0.42,0.07314142454585798,0.41999999999999965,0.07314142454585795,-0.18585796687739295,0.1903890494749795,-1.125789828149534,3.31,0.0,0.0
43.700000000009936,3.31,0.42,0.07330918021832358,0.41999999999999965,0.07330918021832356,-0.18585796687739295,0.1903890494749795,-1.125302612130373,3.31,0.0,0.0
43.80000000000996,3.31,0.42,0.07347693589078919,0.41999999999999965,0.07347693589078916,-0.18585796687739295,0.1903890494749795,-1.124815396111212,3.31,0.0,0.0
43.90000000000998,3.31,0.42,0.07364469156325479,0.41999999999999965,0.07364469156325476,-0.18585796687739295,0.1903890494749795,-1.1243281800920508,3.31,0.0,0.0
44.000000000010004,3.31,0.42,0.07381244723572039,0.41999999999999965,0.07381244723572036,-0.18585796687739295,0.1903890494749795,-1.1238409640728897,3.31,0.0,0.0
44.10000000001003,3.31,0.42,0.073980202908186,0.41999999999999965,0.07398020290818597,-0.18585796687739295,0.1903890494749795,-1.1233537480537286,3.31,0.0,0.0
44.20000000001005,3.31,0.42,0.0741479585806516,0.41999999999999965,0.07414795858065157,-0.18585796687739295,0.1903890494749795,-1.1228665320345674,3.31,0.0,0.0
44.30000000001007,3.31,0.42,0.0743157142531172,0.41999999999999965,0.07431571425311717,-0.18585796687739295,0.1903890494749795,-1.1223793160154063,3.31,0.0,0.0
44.400000000010095,3.31,0.42,0.0744834699255828,0.41999999999999965,0.07448346992558277,-0.18585796687739295,0.1903890494749795,-1.1218920999962452,3.31,0.0,0.0
44.50000000001012,3.31,0.42,0.0746512255980484,0.41999999999999965,0.07465122559804838,-0.18585796687739295,0.1903890494749795,-1.121404883977084,3.31,0.0,0.0
44.60000000001014,3.31,0.42,0.074818981270514,0.41999999999999965,0.07481898127051399,-0.18585796687739295,0.1903890494749795,-1.120917667957923,3.31,0.0,0.0
44.700000000010164,3.31,0.42,0.07498673694297961,0.41999999999999965,0.07498673694297961,-0.18585796687739295,0.1903890494749795,-1.1204304519387618,3.31,0.0,0.0
44.800000000010186,3.31,0.42,0.07515449261544521,0.41999999999999965,0.0751544926154452,-0.18585796687739295,0.1903890494749795,-1.1199432359196007,3.31,0.0,0.0
44.90000000001021,3.31,0.42,0.07532224828791081,0.41999999999999965,0.07532224828791079,-0.18585796687739295,0.1903890494749795,-1.1194560199004395,3.31,0.0,0.0
45.00000000001023,3.31,0.42,0.07549000396037642,0.41999999999999965,0.07549000396037639,-0.18585796687739295,0.1903890494749795,-1.1189688038812786,3.31,0.0,0.0
45.100000000010255,3.31,0.42,0.07565775963284202,0.41999999999999965,0.07565775963284199,-0.18585796687739295,0.1903890494749795,-1.1184815878621173,3.31,0.0,0.0
45.20000000001028,3.31,0.42,0.07582551530530762,0.41999999999999965,0.0758255153053076,-0.18585796687739295,0.1903890494749795,-1.1179943718429561,3.31,0.0,0.0
45.3000000000103,3.31,0.42,0.07599327097777323,0.41999999999999965,0.0759932709777732,-0.18585796687739295,0.1903890494749795,-1.117507155823795,3.31,0.0,0.0
45.40000000001032,3.31,0.42,0.07616102665023883,0.41999999999999965,0.0761610266502388,-0.18585796687739295,0.1903890494749795,-1.117019939804634,3.31,0.0,0.0
45.500000000010346,3.31,0.42,0.07632878232270443,0.41999999999999965,0.0763287823227044,-0.18585796687739295,0.1903890494749795,-1.1165327237854727,3.31,0.0,0.0
45.60000000001037,3.31,0.42,0.07649653799517003,0.41999999999999965,0.07649653799516999,-0.18585796687739295,0.1903890494749795,-1.1160455077663118,3.31,0.0,0.0
45.70000000001039,3.31,0.42,0.07666429366763564,0.41999999999999965,0.0766642936676356,-0.18585796687739295,0.1903890494749795,-1.1155582917471505,3.31,0.0,0.0
45.800000000010414,3.31,0.42,0.07683204934010124,0.41999999999999965,0.07683204934010122,-0.18585796687739295,0.1903890494749795,-1.1150710757279894,3.31,0.0,0.0
45.90000000001044,3.31,0.42,0.07699980501256684,0.41999999999999965,0.07699980501256684,-0.18585796687739295,0.1903890494749795,-1.1145838597088282,3.31,0.0,0.0
46.00000000001046,3.31,0.42,0.07716756068503244,0.41999999999999965,0.07716756068503243,-0.18585796687739295,0.1903890494749795,-1.114096643689667,3.31,0.0,0.0
46.10000000001048,3.31,0.42,0.07733531635749805,0.41999999999999965,0.07733531635749802,-0.18585796687739295,0.1903890494749795,-1.113609427670506,3.31,0.0,0.0
46.200000000010505,3.31,0.42,0.07750307202996365,0.41999999999999965,0.07750307202996362,-0.18585796687739295,0.1903890494749795,-1.113122211651345,3.31,0.0,0.0
46.30000000001053,3.31,0.42,0.07767082770242927,0.41999999999999965,0.07767082770242922,-0.18585796687739295,0.1903890494749795,-1.1126349956321837,3.31,0.0,0.0
46.40000000001055,3.31,0.42,0.07783858337489487,0.41999999999999965,0.07783858337489483,-0.18585796687739295,0.1903890494749795,-1.1121477796130226,3.31,0.0,0.0
46.50000000001057,3.31,0.42,0.07800633904736047,0.41999999999999965,0.07800633904736044,-0.18585796687739295,0.1903890494749795,-1.1116605635938615,3.31,0.0,0.0
46.600000000010596,3.31,0.42,0.07817409471982607,0.41999999999999965,0.07817409471982606,-0.18585796687739295,0.1903890494749795,-1.1111733475747003,3.31,0.0,0.0
46.70000000001062,3.31,0.42,0.07834185039229168,0.41999999999999965,0.07834185039229166,-0.18585796687739295,0.1903890494749795,-1.1106861315555394,3.31,0.0,0.0
46.80000000001064,3.31,0.42,0.07850960606475728,0.41999999999999965,0.07850960606475725,-0.18585796687739295,0.1903890494749795,-1.110198915536378,3.31,0.0,0.0
46.900000000010664,3.31,0.42,0.07867736173722288,0.41999999999999965,0.07867736173722287,-0.18585796687739295,0.1903890494749795,-1.109711699517217,3.31,0.0,0.0
47.00000000001069,3.31,0.42,0.07884511740968848,0.41999999999999965,0.07884511740968848,-0.18585796687739295,0.1903890494749795,-1.1092244834980558,3.31,0.0,0.0
47.10000000001071,3.31,0.42,0.07901287308215409,0.41999999999999965,0.07901287308215407,-0.18585796687739295,0.1903890494749795,-1.108737267478895,3.31,0.0,0.0
47.20000000001073,3.31,0.42,0.07918062875461969,0.41999999999999965,0.07918062875461965,-0.18585796687739295,0.1903890494749795,-1.1082500514597335,3.31,0.0,0.0
47.300000000010755,3.31,0.42,0.07934838442708529,0.41999999999999965,0.07934838442708525,-0.18585796687739295,0.1903890494749795,-1.1077628354405726,3.31,0.0,0.0
47.40000000001078,3.31,0.42,0.0795161400995509,0.41999999999999965,0.07951614009955087,-0.18585796687739295,0.1903890494749795,-1.1072756194214113,3.31,0.0,0.0
47.5000000000108,3.31,0.42,0.0796838957720165,0.41999999999999965,0.07968389577201647,-0.18585796687739295,0.1903890494749795,-1.1067884034022504,3.31,0.0,0.0
47.60000000001082,3.31,0.42,0.0798516514444821,0.41999999999999965,0.07985165144448207,-0.18585796687739295,0.1903890494749795,-1.106301187383089,3.31,0.0,0.0
47.700000000010846,3.31,0.42,0.0800194071169477,0.41999999999999965,0.08001940711694769,-0.18585796687739295,0.1903890494749795,-1.105813971363928,3.31,0.0,0.0
47.80000000001087,3.31,0.42,0.0801871627894133,0.41999999999999965,0.0801871627894133,-0.18585796687739295,0.1903890494749795,-1.1053267553447668,3.31,0.0,0.0
47.90000000001089,3.31,0.42,0.08035491846187891,0.41999999999999965,0.0803549184618789,-0.18585796687739295,0.1903890494749795,-1.1048395393256059,3.31,0.0,0.0
48.000000000010914,3.31,0.42,0.08052267413434451,0.41999999999999965,0.08052267413434445,-0.18585796687739295,0.1903890494749795,-1.1043523233064447,3.31,0.0,0.0
48.10000000001094,3.31,0.42,0.08069042980681011,0.41999999999999965,0.08069042980681006,-0.18585796687739295,0.1903890494749795,-1.1038651072872836,3.31,0.0,0.0
48.20000000001096,3.31,0.42,0.08085818547927572,0.41999999999999965,0.08085818547927569,-0.18585796687739295,0.1903890494749795,-1.1033778912681222,3.31,0.0,0.0
48.30000000001098,3.31,0.42,0.08102594115174132,0.41999999999999965,0.0810259411517413,-0.18585796687739295,0.1903890494749795,-1.1028906752489613,3.31,0.0,0.0
48.400000000011005,3.31,0.42,0.08119369682420692,0.41999999999999965,0.08119369682420689,-0.18585796687739295,0.1903890494749795,-1.1024034592298002,3.31,0.0,0.0
48.50000000001103,3.31,0.42,0.08136145249667252,0.41999999999999965,0.08136145249667248,-0.18585796687739295,0.1903890494749795,-1.101916243210639,3.31,0.0,0.0
48.60000000001105,3.31,0.42,0.08152920816913813,0.41999999999999965,0.08152920816913808,-0.18585796687739295,0.1903890494749795,-1.101429027191478,3.31,0.0,0.0
48.70000000001107,3.31,0.42,0.08169696384160373,0.41999999999999965,0.08169696384160369,-0.18585796687739295,0.1903890494749795,-1.1009418111723168,3.31,0.0,0.0
48.800000000011096,3.31,0.42,0.08186471951406933,0.41999999999999965,0.08186471951406929,-0.18585796687739295,0.1903890494749795,-1.1004545951531557,3.31,0.0,0.0
48.90000000001112,3.31,0.42,0.08203247518653493,0.41999999999999965,0.0820324751865349,-0.18585796687739295,0.1903890494749795,-1.0999673791339946,3.31,0.0,0.0
49.00000000001114,3.31,0.42,0.08220023085900054,0.41999999999999965,0.08220023085900052,-0.18585796687739295,0.1903890494749795,-1.0994801631148334,3.31,0.0,0.0
49.100000000011164,3.31,0.42,0.08236798653146614,0.41999999999999965,0.08236798653146613,-0.18585796687739295,0.1903890494749795,-1.0989929470956723,3.31,0.0,0.0
49.20000000001119,3.31,0.42,0.08253574220393174,0.41999999999999965,0.08253574220393173,-0.18585796687739295,0.1903890494749795,-1.0985057310765112,3.31,0.0,0.0
49.30000000001121,3.31,0.42,0.08270349787639734,0.41999999999999965,0.08270349787639733,-0.18585796687739295,0.1903890494749795,-1.0980185150573498,3.31,0.0,0.0
49.40000000001123,3.31,0.42,0.08287125354886295,0.41999999999999965,0.08287125354886292,-0.18585796687739295,0.1903890494749795,-1.097531299038189,3.31,0.0,0.0
49.500000000011255,3.31,0.42,0.08303900922132855,0.41999999999999965,0.08303900922132851,-0.18585796687739295,0.1903890494749795,-1.0970440830190278,3.31,0.0,0.0
49.60000000001128,3.31,0.42,0.08320676489379415,0.41999999999999965,0.08320676489379411,-0.18585796687739295,0.1903890494749795,-1.0965568669998667,3.31,0.0,0.0
49.7000000000113,3.31,0.42,0.08337452056625975,0.41999999999999965,0.08337452056625973,-0.18585796687739295,0.1903890494749795,-1.0960696509807055,3.31,0.0,0.0
49.80000000001132,3.31,0.42,0.08354227623872536,0.41999999999999965,0.08354227623872533,-0.18585796687739295,0.1903890494749795,-1.0955824349615444,3.31,0.0,0.0
49.900000000011346,3.31,0.42,0.08371003191119096,0.41999999999999965,0.08371003191119093,-0.18585796687739295,0.1903890494749795,-1.0950952189423833,3.31,0.0,0.0
50.00000000001137,3.31,0.42,0.08387778758365656,0.41999999999999965,0.08387778758365654,-0.18585796687739295,0.1903890494749795,-1.0946080029232221,3.31,0.0,0.0
50.10000000001139,3.31,0.42,0.08404554325612217,0.41999999999999965,0.08404554325612214,-0.18585796687739295,0.1903890494749795,-1.094120786904061,3.31,0.0,0.0
50.200000000011414,3.31,0.42,0.08421329892858777,0.41999999999999965,0.08421329892858774,-0.18585796687739295,0.1903890494749795,-1.0936335708848999,3.31,0.0,0.0
50.30000000001144,3.31,0.42,0.08438105460105337,0.41999999999999965,0.08438105460105334,-0.18585796687739295,0.1903890494749795,-1.0931463548657387,3.31,0.0,0.0
50.40000000001146,3.31,0.42,0.08454881027351897,0.41999999999999965,0.08454881027351896,-0.18585796687739295,0.1903890494749795,-1.0926591388465776,3.31,0.0,0.0
50.50000000001148,3.31,0.42,0.08471656594598458,0.41999999999999965,0.08471656594598458,-0.18585796687739295,0.1903890494749795,-1.0921719228274165,3.31,0.0,0.0
50.600000000011505,3.31,0.42,0.08488432161845018,0.41999999999999965,0.08488432161845016,-0.18585796687739295,0.1903890494749795,-1.0916847068082554,3.31,0.0,0.0
50.70000000001153,3.31,0.42,0.08505207729091578,0.41999999999999965,0.08505207729091575,-0.18585796687739295,0.1903890494749795,-1.0911974907890942,3.31,0.0,0.0
50.80000000001155,3.31,0.42,0.08521983296338138,0.41999999999999965,0.08521983296338136,-0.18585796687739295,0.1903890494749795,-1.090710274769933,3.31,0.0,0.0
50.90000000001157,3.31,0.42,0.08538758863584699,0.41999999999999965,0.08538758863584697,-0.18585796687739295,0.1903890494749795,-1.090223058750772,3.31,0.0,0.0
51.000000000011596,3.31,0.42,0.08555534430831259,0.41999999999999965,0.08555534430831256,-0.18585796687739295,0.1903890494749795,-1.0897358427316108,3.31,0.0,0.0
51.10000000001162,3.31,0.42,0.08572309998077819,0.41999999999999965,0.08572309998077815,-0.18585796687739295,0.1903890494749795,-1.0892486267124497,3.31,0.0,0.0
51.20000000001164,3.31,0.42,0.08589085565324381,0.41999999999999965,0.08589085565324378,-0.18585796687739295,0.1903890494749795,-1.0887614106932886,3.31,0.0,0.0
51.300000000011664,3.31,0.42,0.08605861132570941,0.41999999999999965,0.0860586113257094,-0.18585796687739295,0.1903890494749795,-1.0882741946741274,3.31,0.0,0.0
51.40000000001169,3.31,0.42,0.08622636699817501,0.41999999999999965,0.08622636699817499,-0.18585796687739295,0.1903890494749795,-1.0877869786549663,3.31,0.0,0.0
51.50000000001171,3.31,0.42,0.08639412267064062,0.41999999999999965,0.08639412267064056,-0.18585796687739295,0.1903890494749795,-1.0872997626358054,3.31,0.0,0.0
51.60000000001173,3.31,0.42,0.08656187834310622,0.41999999999999965,0.08656187834310618,-0.18585796687739295,0.1903890494749795,-1.086812546616644,3.31,0.0,0.0
51.700000000011755,3.31,0.42,0.08672963401557182,0.41999999999999965,0.0867296340155718,-0.18585796687739295,0.1903890494749795,-1.086325330597483,3.31,0.0,0.0
51.80000000001178,3.31,0.42,0.08689738968803742,0.41999999999999965,0.0868973896880374,-0.18585796687739295,0.1903890494749795,-1.0858381145783218,3.31,0.0,0.0
51.9000000000118,3.31,0.42,0.08706514536050303,0.41999999999999965,0.08706514536050299,-0.18585796687739295,0.1903890494749795,-1.085350898559161,3.31,0.0,0.0
52.00000000001182,3.31,0.42,0.08723290103296863,0.41999999999999965,0.08723290103296859,-0.18585796687739295,0.1903890494749795,-1.0848636825399995,3.31,0.0,0.0
52.100000000011846,3.31,0.42,0.08740065670543423,0.41999999999999965,0.08740065670543422,-0.18585796687739295,0.1903890494749795,-1.0843764665208384,3.31,0.0,0.0
52.20000000001187,3.31,0.42,0.08756841237789983,0.41999999999999965,0.08756841237789983,-0.18585796687739295,0.1903890494749795,-1.0838892505016773,3.31,0.0,0.0
52.30000000001189,3.31,0.42,0.08773616805036544,0.41999999999999965,0.08773616805036541,-0.18585796687739295,0.1903890494749795,-1.0834020344825164,3.31,0.0,0.0
52.400000000011914,3.31,0.42,0.08790392372283104,0.41999999999999965,0.087903923722831,-0.18585796687739295,0.1903890494749795,-1.082914818463355,3.31,0.0,0.0
52.50000000001194,3.31,0.42,0.08807167939529664,0.41999999999999965,0.08807167939529661,-0.18585796687739295,0.1903890494749795,-1.082427602444194,3.31,0.0,0.0
52.60000000001196,3.31,0.42,0.08823943506776225,0.41999999999999965,0.08823943506776222,-0.18585796687739295,0.1903890494749795,-1.0819403864250328,3.31,0.0,0.0
52.70000000001198,3.31,0.42,0.08840719074022785,0.41999999999999965,0.0884071907402278,-0.18585796687739295,0.1903890494749795,-1.0814531704058719,3.31,0.0,0.0
52.800000000012005,3.31,0.42,0.08857494641269345,0.41999999999999965,0.0885749464126934,-0.18585796687739295,0.1903890494749795,-1.0809659543867105,3.31,0.0,0.0
52.90000000001203,3.31,0.42,0.08874270208515905,0.41999999999999965,0.08874270208515901,-0.18585796687739295,0.1903890494749795,-1.0804787383675496,3.31,0.0,0.0
53.00000000001205,3.31,0.42,0.08891045775762466,0.41999999999999965,0.08891045775762463,-0.18585796687739295,0.1903890494749795,-1.0799915223483882,3.31,0.0,0.0
53.10000000001207,3.31,0.42,0.08907821343009026,0.41999999999999965,0.08907821343009026,-0.18585796687739295,0.1903890494749795,-1.0795043063292271,3.31,0.0,0.0
53.200000000012096,3.31,0.42,0.08924596910255586,0.41999999999999965,0.08924596910255586,-0.18585796687739295,0.1903890494749795,-1.0790170903100662,3.31,0.0,0.0
53.30000000001212,3.31,0.42,0.08941372477502146,0.41999999999999965,0.08941372477502144,-0.18585796687739295,0.1903890494749795,-1.0785298742909049,3.31,0.0,0.0
53.40000000001214,3.31,0.42,0.08958148044748707,0.41999999999999965,0.08958148044748701,-0.18585796687739295,0.1903890494749795,-1.078042658271744,3.31,0.0,0.0
53.500000000012164,3.31,0.42,0.08974923611995267,0.41999999999999965,0.08974923611995263,-0.18585796687739295,0.1903890494749795,-1.0775554422525828,3.31,0.0,0.0
53.60000000001219,3.31,0.42,0.08991699179241827,0.41999999999999965,0.08991699179241826,-0.18585796687739295,0.1903890494749795,-1.0770682262334217,3.31,0.0,0.0
53.70000000001221,3.31,0.42,0.09008474746488387,0.41999999999999965,0.09008474746488386,-0.18585796687739295,0.1903890494749795,-1.0765810102142603,3.31,0.0,0.0
53.80000000001223,3.31,0.42,0.09025250313734948,0.41999999999999965,0.09025250313734944,-0.18585796687739295,0.1903890494749795,-1.0760937941950994,3.31,0.0,0.0
53.900000000012255,3.31,0.42,0.09042025880981508,0.41999999999999965,0.09042025880981504,-0.18585796687739295,0.1903890494749795,-1.0756065781759383,3.31,0.0,0.0
54.00000000001228,3.31,0.42,0.09058801448228068,0.41999999999999965,0.09058801448228064,-0.18585796687739295,0.1903890494749795,-1.0751193621567772,3.31,0.0,0.0
54.1000000000123,3.31,0.42,0.09075577015474628,0.41999999999999965,0.09075577015474624,-0.18585796687739295,0.1903890494749795,-1.074632146137616,3.31,0.0,0.0
54.200000000012324,3.31,0.42,0.09092352582721189,0.41999999999999965,0.09092352582721186,-0.18585796687739295,0.1903890494749795,-1.074144930118455,3.31,0.0,0.0
54.300000000012346,3.31,0.42,0.09109128149967749,0.41999999999999965,0.09109128149967748,-0.18585796687739295,0.1903890494749795,-1.0736577140992936,3.31,0.0,0.0
54.40000000001237,3.31,0.42,0.09125903717214309,0.41999999999999965,0.09125903717214308,-0.18585796687739295,0.1903890494749795,-1.0731704980801327,3.31,0.0,0.0
54.50000000001239,3.31,0.42,0.0914267928446087,0.41999999999999965,0.09142679284460868,-0.18585796687739295,0.1903890494749795,-1.0726832820609713,3.31,0.0,0.0
54.600000000012415,3.31,0.42,0.0915945485170743,0.41999999999999965,0.09159454851707428,-0.18585796687739295,0.1903890494749795,-1.0721960660418104,3.31,0.0,0.0
54.70000000001244,3.31,0.42,0.0917623041895399,0.41999999999999965,0.09176230418953989,-0.18585796687739295,0.1903890494749795,-1.071708850022649,3.31,0.0,0.0
54.80000000001246,3.31,0.42,0.0919300598620055,0.41999999999999965,0.09193005986200549,-0.18585796687739295,0.1903890494749795,-1.0712216340034881,3.31,0.0,0.0
54.90000000001248,3.31,0.42,0.0920978155344711,0.41999999999999965,0.09209781553447108,-0.18585796687739295,0.1903890494749795,-1.070734417984327,3.31,0.0,0.0
55.000000000012506,3.31,0.42,0.09226557120693671,0.41999999999999965,0.09226557120693668,-0.18585796687739295,0.1903890494749795,-1.0702472019651659,3.31,0.0,0.0
55.10000000001253,3.31,0.42,0.09243332687940231,0.41999999999999965,0.09243332687940228,-0.18585796687739295,0.1903890494749795,-1.0697599859460047,3.31,0.0,0.0
55.20000000001255,3.31,0.42,0.09260108255186791,0.41999999999999965,0.0926010825518679,-0.18585796687739295,0.1903890494749795,-1.0692727699268436,3.31,0.0,0.0
55.300000000012574,3.31,0.42,0.09276883822433352,0.41999999999999965,0.09276883822433349,-0.18585796687739295,0.1903890494749795,-1.0687855539076825,3.31,0.0,0.0
55.4000000000126,3.31,0.42,0.09293659389679912,0.41999999999999965,0.09293659389679908,-0.18585796687739295,0.1903890494749795,-1.0682983378885214,3.31,0.0,0.0
55.50000000001262,3.31,0.42,0.09310434956926472,0.41999999999999965,0.0931043495692647,-0.18585796687739295,0.1903890494749795,-1.0678111218693602,3.31,0.0,0.0
55.60000000001264,3.31,0.42,0.09327210524173032,0.41999999999999965,0.0932721052417303,-0.18585796687739295,0.1903890494749795,-1.067323905850199,3.31,0.0,0.0
55.700000000012665,3.31,0.42,0.09343986091419593,0.41999999999999965,0.09343986091419589,-0.18585796687739295,0.1903890494749795,-1.066836689831038,3.31,0.0,0.0
55.80000000001269,3.31,0.42,0.09360761658666153,0.41999999999999965,0.09360761658666149,-0.18585796687739295,0.1903890494749795,-1.0663494738118768,3.31,0.0,0.0
55.90000000001271,3.31,0.42,0.09377537225912713,0.41999999999999965,0.09377537225912709,-0.18585796687739295,0.1903890494749795,-1.0658622577927157,3.31,0.0,0.0
56.00000000001273,3.31,0.42,0.09394312793159273,0.41999999999999965,0.09394312793159271,-0.18585796687739295,0.1903890494749795,-1.0653750417735546,3.31,0.0,0.0
56.100000000012756,3.31,0.42,0.09411088360405835,0.41999999999999965,0.09411088360405831,-0.18585796687739295,0.1903890494749795,-1.0648878257543934,3.31,0.0,0.0
56.20000000001278,3.31,0.42,0.09427863927652395,0.41999999999999965,0.09427863927652391,-0.18585796687739295,0.1903890494749795,-1.0644006097352323,3.31,0.0,0.0
56.3000000000128,3.31,0.42,0.09444639494898956,0.41999999999999965,0.09444639494898954,-0.18585796687739295,0.1903890494749795,-1.0639133937160712,3.31,0.0,0.0
56.400000000012824,3.31,0.42,0.09461415062145516,0.41999999999999965,0.09461415062145515,-0.18585796687739295,0.1903890494749795,-1.06342617769691,3.31,0.0,0.0
56.50000000001285,3.31,0.42,0.09478190629392076,0.41999999999999965,0.09478190629392072,-0.18585796687739295,0.1903890494749795,-1.062938961677749,3.31,0.0,0.0
56.60000000001287,3.31,0.42,0.09494966196638636,0.41999999999999965,0.09494966196638631,-0.18585796687739295,0.1903890494749795,-1.0624517456585878,3.31,0.0,0.0
56.70000000001289,3.31,0.42,0.09511741763885197,0.41999999999999965,0.09511741763885194,-0.18585796687739295,0.1903890494749795,-1.0619645296394267,3.31,0.0,0.0
56.800000000012915,3.31,0.42,0.09528517331131757,0.41999999999999965,0.09528517331131756,-0.18585796687739295,0.1903890494749795,-1.0614773136202655,3.31,0.0,0.0
56.90000000001294,3.31,0.42,0.09545292898378317,0.41999999999999965,0.09545292898378313,-0.18585796687739295,0.1903890494749795,-1.0609900976011044,3.31,0.0,0.0
57.00000000001296,3.31,0.42,0.09562068465624878,0.41999999999999965,0.09562068465624872,-0.18585796687739295,0.1903890494749795,-1.0605028815819433,3.31,0.0,0.0
57.10000000001298,3.31,0.42,0.09578844032871438,0.41999999999999965,0.09578844032871434,-0.18585796687739295,0.1903890494749795,-1.0600156655627824,3.31,0.0,0.0
57.200000000013006,3.31,0.42,0.09595619600117998,0.41999999999999965,0.09595619600117994,-0.18585796687739295,0.1903890494749795,-1.059528449543621,3.31,0.0,0.0
57.30000000001303,3.31,0.42,0.09612395167364558,0.41999999999999965,0.09612395167364556,-0.18585796687739295,0.1903890494749795,-1.05904123352446,3.31,0.0,0.0
57.40000000001305,3.31,0.42,0.09629170734611119,0.41999999999999965,0.09629170734611116,-0.18585796687739295,0.1903890494749795,-1.0585540175052988,3.31,0.0,0.0
57.500000000013074,3.31,0.42,0.09645946301857679,0.41999999999999965,0.09645946301857676,-0.18585796687739295,0.1903890494749795,-1.0580668014861376,3.31,0.0,0.0
57.6000000000131,3.31,0.42,0.09662721869104239,0.41999999999999965,0.09662721869104236,-0.18585796687739295,0.1903890494749795,-1.0575795854669765,3.31,0.0,0.0
57.70000000001312,3.31,0.42,0.096794974363508,0.41999999999999965,0.09679497436350798,-0.18585796687739295,0.1903890494749795,-1.0570923694478154,3.31,0.0,0.0
57.80000000001314,3.31,0.42,0.0969627300359736,0.41999999999999965,0.0969627300359736,-0.18585796687739295,0.1903890494749795,-1.0566051534286542,3.31,0.0,0.0
57.900000000013165,3.31,0.42,0.0971304857084392,0.41999999999999965,0.09713048570843917,-0.18585796687739295,0.1903890494749795,-1.0561179374094931,3.31,0.0,0.0
58.00000000001319,3.31,0.42,0.0972982413809048,0.41999999999999965,0.09729824138090476,-0.18585796687739295,0.1903890494749795,-1.0556307213903322,3.31,0.0,0.0
58.10000000001321,3.31,0.42,0.0974659970533704,0.41999999999999965,0.09746599705337036,-0.18585796687739295,0.1903890494749795,-1.0551435053711709,3.31,0.0,0.0
58.20000000001323,3.31,0.42,0.097633752725836,0.41999999999999965,0.09763375272583598,-0.18585796687739295,0.1903890494749795,-1.05465628935201,3.31,0.0,0.0
58.300000000013256,3.31,0.42,0.09780150839830161,0.41999999999999965,0.09780150839830158,-0.18585796687739295,0.1903890494749795,-1.0541690733328486,3.31,0.0,0.0
58.40000000001328,3.31,0.42,0.09796926407076721,0.41999999999999965,0.09796926407076718,-0.18585796687739295,0.1903890494749795,-1.0536818573136877,3.31,0.0,0.0
58.5000000000133,3.31,0.42,0.09813701974323281,0.41999999999999965,0.09813701974323277,-0.18585796687739295,0.1903890494749795,-1.0531946412945263,3.31,0.0,0.0
58.600000000013324,3.31,0.42,0.09830477541569842,0.41999999999999965,0.09830477541569836,-0.18585796687739295,0.1903890494749795,-1.0527074252753654,3.31,0.0,0.0
58.70000000001335,3.31,0.42,0.09847253108816402,0.41999999999999965,0.09847253108816398,-0.18585796687739295,0.1903890494749795,-1.0522202092562043,3.31,0.0,0.0
58.80000000001337,3.31,0.42,0.09864028676062962,0.41999999999999965,0.0986402867606296,-0.18585796687739295,0.1903890494749795,-1.0517329932370432,3.31,0.0,0.0
58.90000000001339,3.31,0.42,0.09880804243309523,0.41999999999999965,0.09880804243309523,-0.18585796687739295,0.1903890494749795,-1.0512457772178818,3.31,0.0,0.0
59.000000000013415,3.31,0.42,0.09897579810556083,0.41999999999999965,0.09897579810556084,-0.18585796687739295,0.1903890494749795,-1.0507585611987207,3.31,0.0,0.0
59.10000000001344,3.31,0.42,0.09914355377802643,0.41999999999999965,0.09914355377802642,-0.18585796687739295,0.1903890494749795,-1.0502713451795596,3.31,0.0,0.0
59.20000000001346,3.31,0.42,0.09931130945049203,0.41999999999999965,0.09931130945049199,-0.18585796687739295,0.1903890494749795,-1.0497841291603986,3.31,0.0,0.0
59.30000000001348,3.31,0.42,0.09947906512295764,0.41999999999999965,0.0994790651229576,-0.18585796687739295,0.1903890494749795,-1.0492969131412373,3.31,0.0,0.0
59.400000000013506,3.31,0.42,0.09964682079542324,0.41999999999999965,0.09964682079542321,-0.18585796687739295,0.1903890494749795,-1.0488096971220764,3.31,0.0,0.0
59.50000000001353,3.31,0.42,0.09981457646788884,0.41999999999999965,0.0998145764678888,-0.18585796687739295,0.1903890494749795,-1.0483224811029153,3.31,0.0,0.0
59.60000000001355,3.31,0.42,0.09998233214035444,0.41999999999999965,0.09998233214035439,-0.18585796687739295,0.1903890494749795,-1.0478352650837541,3.31,0.0,0.0
59.700000000013574,3.31,0.42,0.10015008781282005,0.41999999999999965,0.10015008781282,-0.18585796687739295,0.1903890494749795,-1.047348049064593,3.31,0.0,0.0
59.8000000000136,3.31,0.42,0.10031784348528565,0.41999999999999965,0.10031784348528562,-0.18585796687739295,0.1903890494749795,-1.0468608330454319,3.31,0.0,0.0
59.90000000001362,3.31,0.42,0.10048559915775125,0.41999999999999965,0.10048559915775121,-0.18585796687739295,0.1903890494749795,-1.0463736170262707,3.31,0.0,0.0
60.00000000001364,3.31,0.42,0.10065335483021685,0.41999999999999965,0.10065335483021681,-0.18585796687739295,0.1903890494749795,-1.0458864010071096,3.31,0.0,0.0
60.100000000013665,3.31,0.42,0.10082111050268246,0.41999999999999965,0.10082111050268243,-0.18585796687739295,0.1903890494749795,-1.0453991849879485,3.31,0.0,0.0
60.20000000001369,3.31,0.42,0.10098886617514806,0.41999999999999965,0.10098886617514803,-0.18585796687739295,0.1903890494749795,-1.0449119689687874,3.31,0.0,0.0
60.30000000001371,3.31,0.42,0.10115662184761366,0.41999999999999965,0.10115662184761362,-0.18585796687739295,0.1903890494749795,-1.0444247529496262,3.31,0.0,0.0
60.40000000001373,3.31,0.42,0.10132437752007926,0.41999999999999965,0.10132437752007922,-0.18585796687739295,0.1903890494749795,-1.043937536930465,3.31,0.0,0.0
60.500000000013756,3.31,0.42,0.10149213319254487,0.41999999999999965,0.10149213319254484,-0.18585796687739295,0.1903890494749795,-1.043450320911304,3.31,0.0,0.0
60.60000000001378,3.31,0.42,0.10165988886501047,0.41999999999999965,0.10165988886501047,-0.18585796687739295,0.1903890494749795,-1.0429631048921426,3.31,0.0,0.0
60.7000000000138,3.31,0.42,0.10182764453747607,0.41999999999999965,0.10182764453747606,-0.18585796687739295,0.1903890494749795,-1.0424758888729817,3.31,0.0,0.0
60.800000000013824,3.31,0.42,0.10199540020994168,0.41999999999999965,0.10199540020994165,-0.18585796687739295,0.1903890494749795,-1.0419886728538206,3.31,0.0,0.0
60.90000000001385,3.31,0.42,0.10216315588240728,0.41999999999999965,0.10216315588240726,-0.18585796687739295,0.1903890494749795,-1.0415014568346594,3.31,0.0,0.0
61.00000000001387,3.31,0.42,0.1023309115548729,0.41999999999999965,0.10233091155487288,-0.18585796687739295,0.1903890494749795,-1.041014240815498,3.31,0.0,0.0
61.10000000001389,3.31,0.42,0.1024986672273385,0.41999999999999965,0.10249866722733848,-0.18585796687739295,0.1903890494749795,-1.0405270247963372,3.31,0.0,0.0
61.200000000013915,3.31,0.42,0.1026664228998041,0.41999999999999965,0.10266642289980409,-0.18585796687739295,0.1903890494749795,-1.040039808777176,3.31,0.0,0.0
61.30000000001394,3.31,0.42,0.1028341785722697,0.41999999999999965,0.10283417857226969,-0.18585796687739295,0.1903890494749795,-1.039552592758015,3.31,0.0,0.0
61.40000000001396,3.31,0.42,0.1030019342447353,0.41999999999999965,0.10300193424473529,-0.18585796687739295,0.1903890494749795,-1.0390653767388538,3.31,0.0,0.0
61.50000000001398,3.31,0.42,0.10316968991720091,0.41999999999999965,0.10316968991720088,-0.18585796687739295,0.1903890494749795,-1.0385781607196927,3.31,0.0,0.0
61.600000000014006,3.31,0.42,0.10333744558966651,0.41999999999999965,0.10333744558966648,-0.18585796687739295,0.1903890494749795,-1.0380909447005315,3.31,0.0,0.0
61.70000000001403,3.31,0.42,0.10350520126213211,0.41999999999999965,0.1035052012621321,-0.18585796687739295,0.1903890494749795,-1.0376037286813704,3.31,0.0,0.0
61.80000000001405,3.31,0.42,0.10367295693459772,0.41999999999999965,0.10367295693459769,-0.18585796687739295,0.1903890494749795,-1.0371165126622093,3.31,0.0,0.0
61.900000000014074,3.31,0.42,0.10384071260706332,0.41999999999999965,0.10384071260706328,-0.18585796687739295,0.1903890494749795,-1.0366292966430481,3.31,0.0,0.0
62.0000000000141,3.31,0.42,0.10400846827952892,0.41999999999999965,0.1040084682795289,-0.18585796687739295,0.1903890494749795,-1.036142080623887,3.31,0.0,0.0
62.10000000001412,3.31,0.42,0.10417622395199452,0.41999999999999965,0.10417622395199452,-0.18585796687739295,0.1903890494749795,-1.0356548646047259,3.31,0.0,0.0
62.20000000001414,3.31,0.42,0.10434397962446013,0.41999999999999965,0.1043439796244601,-0.18585796687739295,0.1903890494749795,-1.0351676485855648,3.31,0.0,0.0
62.300000000014165,3.31,0.42,0.10451173529692573,0.41999999999999965,0.10451173529692567,-0.18585796687739295,0.1903890494749795,-1.0346804325664039,3.31,0.0,0.0
62.40000000001419,3.31,0.42,0.10467949096939133,0.41999999999999965,0.10467949096939129,-0.18585796687739295,0.1903890494749795,-1.0341932165472425,3.31,0.0,0.0
62.50000000001421,3.31,0.42,0.10484724664185693,0.41999999999999965,0.1048472466418569,-0.18585796687739295,0.1903890494749795,-1.0337060005280814,3.31,0.0,0.0
62.600000000014234,3.31,0.42,0.10501500231432254,0.41999999999999965,0.1050150023143225,-0.18585796687739295,0.1903890494749795,-1.0332187845089205,3.31,0.0,0.0
62.700000000014256,3.31,0.42,0.10518275798678814,0.41999999999999965,0.1051827579867881,-0.18585796687739295,0.1903890494749795,-1.032731568489759,3.31,0.0,0.0
62.80000000001428,3.31,0.42,0.10535051365925374,0.41999999999999965,0.1053505136592537,-0.18585796687739295,0.1903890494749795,-1.0322443524705982,3.31,0.0,0.0
62.9000000000143,3.31,0.42,0.10551826933171934,0.41999999999999965,0.10551826933171929,-0.18585796687739295,0.1903890494749795,-1.0317571364514369,3.31,0.0,0.0
63.000000000014325,3.31,0.42,0.10568602500418495,0.41999999999999965,0.10568602500418489,-0.18585796687739295,0.1903890494749795,-1.031269920432276,3.31,0.0,0.0
63.10000000001435,3.31,0.42,0.10585378067665055,0.41999999999999965,0.10585378067665051,-0.18585796687739295,0.1903890494749795,-1.0307827044131146,3.31,0.0,0.0
63.20000000001437,3.31,0.42,0.10602153634911615,0.41999999999999965,0.10602153634911612,-0.18585796687739295,0.1903890494749795,-1.0302954883939537,3.31,0.0,0.0
63.30000000001439,3.31,0.42,0.10618929202158175,0.41999999999999965,0.10618929202158171,-0.18585796687739295,0.1903890494749795,-1.0298082723747923,3.31,0.0,0.0
63.400000000014415,3.31,0.42,0.10635704769404736,0.41999999999999965,0.1063570476940473,-0.18585796687739295,0.1903890494749795,-1.0293210563556314,3.31,0.0,0.0
63.50000000001444,3.31,0.42,0.10652480336651296,0.41999999999999965,0.10652480336651292,-0.18585796687739295,0.1903890494749795,-1.02883384033647,3.31,0.0,0.0
63.60000000001446,3.31,0.42,0.10669255903897856,0.41999999999999965,0.10669255903897855,-0.18585796687739295,0.1903890494749795,-1.028346624317309,3.31,0.0,0.0
63.700000000014484,3.31,0.42,0.10686031471144417,0.41999999999999965,0.10686031471144417,-0.18585796687739295,0.1903890494749795,-1.0278594082981478,3.31,0.0,0.0
63.800000000014506,3.31,0.42,0.10702807038390977,0.41999999999999965,0.10702807038390974,-0.18585796687739295,0.1903890494749795,-1.0273721922789867,3.31,0.0,0.0
63.90000000001453,3.31,0.42,0.10719582605637537,0.41999999999999965,0.10719582605637532,-0.18585796687739295,0.1903890494749795,-1.0268849762598258,3.31,0.0,0.0
64.00000000001455,3.31,0.42,0.10736358172884097,0.41999999999999965,0.10736358172884092,-0.18585796687739295,0.1903890494749795,-1.0263977602406646,3.31,0.0,0.0
64.10000000001457,3.31,0.42,0.10753133740130658,0.41999999999999965,0.10753133740130652,-0.18585796687739295,0.1903890494749795,-1.0259105442215033,3.31,0.0,0.0
64.2000000000146,3.31,0.42,0.10769909307377218,0.41999999999999965,0.10769909307377214,-0.18585796687739295,0.1903890494749795,-1.0254233282023424,3.31,0.0,0.0
64.30000000001462,3.31,0.42,0.10786684874623778,0.41999999999999965,0.10786684874623775,-0.18585796687739295,0.1903890494749795,-1.0249361121831813,3.31,0.0,0.0
64.40000000001464,3.31,0.42,0.10803460441870338,0.41999999999999965,0.10803460441870336,-0.18585796687739295,0.1903890494749795,-1.0244488961640201,3.31,0.0,0.0
64.50000000001467,3.31,0.42,0.10820236009116899,0.41999999999999965,0.10820236009116894,-0.18585796687739295,0.1903890494749795,-1.023961680144859,3.31,0.0,0.0
64.60000000001469,3.31,0.42,0.10837011576363459,0.41999999999999965,0.10837011576363452,-0.18585796687739295,0.1903890494749795,-1.0234744641256979,3.31,0.0,0.0
64.70000000001471,3.31,0.42,0.10853787143610019,0.41999999999999965,0.10853787143610012,-0.18585796687739295,0.1903890494749795,-1.0229872481065367,3.31,0.0,0.0
64.80000000001473,3.31,0.42,0.1087056271085658,0.41999999999999965,0.10870562710856574,-0.18585796687739295,0.1903890494749795,-1.0225000320873756,3.31,0.0,0.0
64.90000000001476,3.31,0.42,0.1088733827810314,0.41999999999999965,0.10887338278103134,-0.18585796687739295,0.1903890494749795,-1.0220128160682145,3.31,0.0,0.0
65.00000000001478,3.31,0.42,0.109041138453497,0.41999999999999965,0.10904113845349694,-0.18585796687739295,0.1903890494749795,-1.0215256000490534,3.31,0.0,0.0
65.1000000000148,3.31,0.42,0.1092088941259626,0.41999999999999965,0.10920889412596256,-0.18585796687739295,0.1903890494749795,-1.0210383840298922,3.31,0.0,0.0
65.20000000001482,3.31,0.42,0.1093766497984282,0.41999999999999965,0.10937664979842816,-0.18585796687739295,0.1903890494749795,-1.020551168010731,3.31,0.0,0.0
65.30000000001485,3.31,0.42,0.10954440547089381,0.41999999999999965,0.10954440547089377,-0.18585796687739295,0.1903890494749795,-1.02006395199157,3.31,0.0,0.0
65.40000000001487,3.31,0.42,0.10971216114335941,0.41999999999999965,0.10971216114335937,-0.18585796687739295,0.1903890494749795,-1.0195767359724088,3.31,0.0,0.0
65.5000000000149,3.31,0.42,0.10987991681582501,0.41999999999999965,0.10987991681582497,-0.18585796687739295,0.1903890494749795,-1.0190895199532477,3.31,0.0,0.0
65.60000000001492,3.31,0.42,0.11004767248829062,0.41999999999999965,0.11004767248829057,-0.18585796687739295,0.1903890494749795,-1.0186023039340866,3.31,0.0,0.0
65.70000000001494,3.31,0.42,0.11021542816075622,0.41999999999999965,0.11021542816075616,-0.18585796687739295,0.1903890494749795,-1.0181150879149254,3.31,0.0,0.0
65.80000000001496,3.31,0.42,0.11038318383322182,0.41999999999999965,0.11038318383322178,-0.18585796687739295,0.1903890494749795,-1.0176278718957643,3.31,0.0,0.0
65.90000000001498,3.31,0.42,0.11055093950568742,0.41999999999999965,0.11055093950568738,-0.18585796687739295,0.1903890494749795,-1.0171406558766032,3.31,0.0,0.0
66.000000000015,3.31,0.42,0.11071869517815304,0.41999999999999965,0.11071869517815297,-0.18585796687739295,0.1903890494749795,-1.016653439857442,3.31,0.0,0.0
66.10000000001503,3.31,0.42,0.11088645085061864,0.41999999999999965,0.11088645085061857,-0.18585796687739295,0.1903890494749795,-1.016166223838281,3.31,0.0,0.0
66.20000000001505,3.31,0.42,0.11105420652308425,0.41999999999999965,0.1110542065230842,-0.18585796687739295,0.1903890494749795,-1.0156790078191198,3.31,0.0,0.0
66.30000000001507,3.31,0.42,0.11122196219554985,0.41999999999999965,0.11122196219554982,-0.18585796687739295,0.1903890494749795,-1.0151917917999587,3.31,0.0,0.0
66.4000000000151,3.31,0.42,0.11138971786801545,0.41999999999999965,0.11138971786801542,-0.18585796687739295,0.1903890494749795,-1.0147045757807975,3.31,0.0,0.0
66.50000000001512,3.31,0.42,0.11155747354048105,0.41999999999999965,0.11155747354048101,-0.18585796687739295,0.1903890494749795,-1.0142173597616364,3.31,0.0,0.0
66.60000000001514,3.31,0.42,0.11172522921294666,0.41999999999999965,0.11172522921294661,-0.18585796687739295,0.1903890494749795,-1.0137301437424753,3.31,0.0,0.0
66.70000000001517,3.31,0.42,0.11189298488541226,0.41999999999999965,0.11189298488541222,-0.18585796687739295,0.1903890494749795,-1.0132429277233141,3.31,0.0,0.0
66.80000000001519,3.31,0.42,0.11206074055787786,0.41999999999999965,0.11206074055787783,-0.18585796687739295,0.1903890494749795,-1.012755711704153,3.31,0.0,0.0
66.90000000001521,3.31,0.42,0.11222849623034346,0.41999999999999965,0.11222849623034345,-0.18585796687739295,0.1903890494749795,-1.0122684956849919,3.31,0.0,0.0
67.00000000001523,3.31,0.42,0.11239625190280907,0.41999999999999965,0.11239625190280905,-0.18585796687739295,0.1903890494749795,-1.0117812796658308,3.31,0.0,0.0
67.10000000001526,3.31,0.42,0.11256400757527467,0.41999999999999965,0.11256400757527464,-0.18585796687739295,0.1903890494749795,-1.0112940636466696,3.31,0.0,0.0
67.20000000001528,3.31,0.42,0.11273176324774027,0.41999999999999965,0.11273176324774023,-0.18585796687739295,0.1903890494749795,-1.0108068476275087,3.31,0.0,0.0
67.3000000000153,3.31,0.42,0.11289951892020587,0.41999999999999965,0.11289951892020583,-0.18585796687739295,0.1903890494749795,-1.0103196316083474,3.31,0.0,0.0
67.40000000001532,3.31,0.42,0.11306727459267148,0.41999999999999965,0.11306727459267142,-0.18585796687739295,0.1903890494749795,-1.0098324155891865,3.31,0.0,0.0
67.50000000001535,3.31,0.42,0.11323503026513708,0.41999999999999965,0.11323503026513701,-0.18585796687739295,0.1903890494749795,-1.0093451995700253,3.31,0.0,0.0
67.60000000001537,3.31,0.42,0.11340278593760268,0.41999999999999965,0.11340278593760264,-0.18585796687739295,0.1903890494749795,-1.0088579835508642,3.31,0.0,0.0
67.7000000000154,3.31,0.42,0.11357054161006828,0.41999999999999965,0.11357054161006826,-0.18585796687739295,0.1903890494749795,-1.0083707675317028,3.31,0.0,0.0
67.80000000001542,3.31,0.42,0.11373829728253389,0.41999999999999965,0.11373829728253387,-0.18585796687739295,0.1903890494749795,-1.0078835515125417,3.31,0.0,0.0
67.90000000001544,3.31,0.42,0.11390605295499949,0.41999999999999965,0.11390605295499948,-0.18585796687739295,0.1903890494749795,-1.0073963354933806,3.31,0.0,0.0
68.00000000001546,3.31,0.42,0.11407380862746509,0.41999999999999965,0.11407380862746505,-0.18585796687739295,0.1903890494749795,-1.0069091194742197,3.31,0.0,0.0
68.10000000001548,3.31,0.42,0.1142415642999307,0.41999999999999965,0.11424156429993064,-0.18585796687739295,0.1903890494749795,-1.0064219034550583,3.31,0.0,0.0
68.2000000000155,3.31,0.42,0.1144093199723963,0.41999999999999965,0.11440931997239626,-0.18585796687739295,0.1903890494749795,-1.0059346874358972,3.31,0.0,0.0
68.30000000001553,3.31,0.42,0.1145770756448619,0.41999999999999965,0.11457707564486187,-0.18585796687739295,0.1903890494749795,-1.005447471416736,3.31,0.0,0.0
68.40000000001555,3.31,0.42,0.1147448313173275,0.41999999999999965,0.11474483131732748,-0.18585796687739295,0.1903890494749795,-1.004960255397575,3.31,0.0,0.0
68.50000000001558,3.31,0.42,0.1149125869897931,0.41999999999999965,0.11491258698979305,-0.18585796687739295,0.1903890494749795,-1.0044730393784138,3.31,0.0,0.0
68.6000000000156,3.31,0.42,0.11508034266225871,0.41999999999999965,0.11508034266225867,-0.18585796687739295,0.1903890494749795,-1.0039858233592527,3.31,0.0,0.0
68.70000000001562,3.31,0.42,0.11524809833472431,0.41999999999999965,0.1152480983347243,-0.18585796687739295,0.1903890494749795,-1.0034986073400916,3.31,0.0,0.0
68.80000000001564,3.31,0.42,0.11541585400718991,0.41999999999999965,0.1154158540071899,-0.18585796687739295,0.1903890494749795,-1.0030113913209304,3.31,0.0,0.0
68.90000000001567,3.31,0.42,0.11558360967965552,0.41999999999999965,0.11558360967965549,-0.18585796687739295,0.1903890494749795,-1.0025241753017695,3.31,0.0,0.0
69.00000000001569,3.31,0.42,0.11575136535212112,0.41999999999999965,0.11575136535212108,-0.18585796687739295,0.1903890494749795,-1.0020369592826082,3.31,0.0,0.0
69.10000000001571,3.31,0.42,0.11591912102458672,0.41999999999999965,0.11591912102458667,-0.18585796687739295,0.1903890494749795,-1.0015497432634473,3.31,0.0,0.0
69.20000000001573,3.31,0.42,0.11608687669705232,0.41999999999999965,0.11608687669705228,-0.18585796687739295,0.1903890494749795,-1.0010625272442861,3.31,0.0,0.0
69.30000000001576,3.31,0.42,0.11625463236951793,0.41999999999999965,0.1162546323695179,-0.18585796687739295,0.1903890494749795,-1.000575311225125,3.31,0.0,0.0
69.40000000001578,3.31,0.42,0.11642238804198353,0.41999999999999965,0.1164223880419835,-0.18585796687739295,0.1903890494749795,-1.0000880952059636,3.31,0.0,0.0
69.5000000000158,3.31,0.42,0.11659014371444913,0.41999999999999965,0.11659014371444909,-0.18585796687739295,0.1903890494749795,-0.9996008791868026,3.31,0.0,0.0
69.60000000001583,3.31,0.42,0.11675789938691473,0.41999999999999965,0.11675789938691469,-0.18585796687739295,0.1903890494749795,-0.9991136631676416,3.31,0.0,0.0
69.70000000001585,3.31,0.42,0.11692565505938034,0.41999999999999965,0.11692565505938031,-0.18585796687739295,0.1903890494749795,-0.9986264471484804,3.31,0.0,0.0
69.80000000001587,3.31,0.42,0.11709341073184594,0.41999999999999965,0.11709341073184591,-0.18585796687739295,0.1903890494749795,-0.9981392311293192,3.31,0.0,0.0
69.9000000000159,3.31,0.42,0.11726116640431154,0.41999999999999965,0.1172611664043115,-0.18585796687739295,0.1903890494749795,-0.9976520151101581,3.31,0.0,0.0
70.00000000001592,3.31,0.42,0.11742892207677715,0.41999999999999965,0.1174289220767771,-0.18585796687739295,0.1903890494749795,-0.9971647990909971,3.31,0.0,0.0
70.10000000001594,3.31,0.42,0.11759667774924275,0.41999999999999965,0.11759667774924269,-0.18585796687739295,0.1903890494749795,-0.996677583071836,3.31,0.0,0.0
70.20000000001596,3.31,0.42,0.11776443342170835,0.41999999999999965,0.1177644334217083,-0.18585796687739295,0.1903890494749795,-0.9961903670526748,3.31,0.0,0.0
70.30000000001598,3.31,0.42,0.11793218909417395,0.41999999999999965,0.11793218909417388,-0.18585796687739295,0.1903890494749795,-0.9957031510335138,3.31,0.0,0.0
70.40000000001601,3.31,0.42,0.11809994476663956,0.41999999999999965,0.1180999447666395,-0.18585796687739295,0.1903890494749795,-0.9952159350143526,3.31,0.0,0.0
70.50000000001603,3.31,0.42,0.11826770043910516,0.41999999999999965,0.11826770043910513,-0.18585796687739295,0.1903890494749795,-0.9947287189951914,3.31,0.0,0.0
70.60000000001605,3.31,0.42,0.11843545611157076,0.41999999999999965,0.11843545611157075,-0.18585796687739295,0.1903890494749795,-0.9942415029760302,3.31,0.0,0.0
70.70000000001608,3.31,0.42,0.11860321178403636,0.41999999999999965,0.11860321178403634,-0.18585796687739295,0.1903890494749795,-0.9937542869568692,3.31,0.0,0.0
70.8000000000161,3.31,0.42,0.11877096745650197,0.41999999999999965,0.11877096745650191,-0.18585796687739295,0.1903890494749795,-0.9932670709377082,3.31,0.0,0.0
70.90000000001612,3.31,0.42,0.11893872312896758,0.41999999999999965,0.11893872312896751,-0.18585796687739295,0.1903890494749795,-0.9927798549185469,3.31,0.0,0.0
71.00000000001614,3.31,0.42,0.11910647880143319,0.41999999999999965,0.11910647880143313,-0.18585796687739295,0.1903890494749795,-0.9922926388993857,3.31,0.0,0.0
71.10000000001617,3.31,0.42,0.11927423447389879,0.41999999999999965,0.11927423447389876,-0.18585796687739295,0.1903890494749795,-0.9918054228802246,3.31,0.0,0.0
71.20000000001619,3.31,0.42,0.11944199014636439,0.41999999999999965,0.11944199014636436,-0.18585796687739295,0.1903890494749795,-0.9913182068610634,3.31,0.0,0.0
71.30000000001621,3.31,0.42,0.11960974581883,0.41999999999999965,0.11960974581882994,-0.18585796687739295,0.1903890494749795,-0.9908309908419024,3.31,0.0,0.0
71.40000000001623,3.31,0.42,0.1197775014912956,0.41999999999999965,0.11977750149129554,-0.18585796687739295,0.1903890494749795,-0.9903437748227412,3.31,0.0,0.0
71.50000000001626,3.31,0.42,0.1199452571637612,0.41999999999999965,0.11994525716376116,-0.18585796687739295,0.1903890494749795,-0.9898565588035801,3.31,0.0,0.0
71.60000000001628,3.31,0.42,0.1201130128362268,0.41999999999999965,0.12011301283622679,-0.18585796687739295,0.1903890494749795,-0.9893693427844189,3.31,0.0,0.0
71.7000000000163,3.31,0.42,0.1202807685086924,0.41999999999999965,0.1202807685086924,-0.18585796687739295,0.1903890494749795,-0.9888821267652578,3.31,0.0,0.0
71.80000000001633,3.31,0.42,0.120448524181158,0.41999999999999965,0.12044852418115799,-0.18585796687739295,0.1903890494749795,-0.9883949107460968,3.31,0.0,0.0
71.90000000001635,3.31,0.42,0.12061627985362361,0.41999999999999965,0.12061627985362357,-0.18585796687739295,0.1903890494749795,-0.9879076947269356,3.31,0.0,0.0
72.00000000001637,3.31,0.42,0.12078403552608921,0.41999999999999965,0.12078403552608916,-0.18585796687739295,0.1903890494749795,-0.9874204787077746,3.31,0.0,0.0
72.1000000000164,3.31,0.42,0.12095179119855481,0.41999999999999965,0.12095179119855477,-0.18585796687739295,0.1903890494749795,-0.9869332626886134,3.31,0.0,0.0
72.20000000001642,3.31,0.42,0.12111954687102042,0.41999999999999965,0.12111954687102038,-0.18585796687739295,0.1903890494749795,-0.9864460466694522,3.31,0.0,0.0
72.30000000001644,3.31,0.42,0.12128730254348602,0.41999999999999965,0.12128730254348596,-0.18585796687739295,0.1903890494749795,-0.9859588306502911,3.31,0.0,0.0
72.40000000001646,3.31,0.42,0.12145505821595162,0.41999999999999965,0.12145505821595155,-0.18585796687739295,0.1903890494749795,-0.9854716146311301,3.31,0.0,0.0
72.50000000001648,3.31,0.42,0.12162281388841722,0.41999999999999965,0.12162281388841717,-0.18585796687739295,0.1903890494749795,-0.984984398611969,3.31,0.0,0.0
72.60000000001651,3.31,0.42,0.12179056956088283,0.41999999999999965,0.12179056956088279,-0.18585796687739295,0.1903890494749795,-0.9844971825928077,3.31,0.0,0.0
72.70000000001653,3.31,0.42,0.12195832523334843,0.41999999999999965,0.12195832523334837,-0.18585796687739295,0.1903890494749795,-0.9840099665736467,3.31,0.0,0.0
72.80000000001655,3.31,0.42,0.12212608090581403,0.41999999999999965,0.12212608090581399,-0.18585796687739295,0.1903890494749795,-0.9835227505544855,3.31,0.0,0.0
72.90000000001658,3.31,0.42,0.12229383657827964,0.41999999999999965,0.12229383657827961,-0.18585796687739295,0.1903890494749795,-0.9830355345353244,3.31,0.0,0.0
73.0000000000166,3.31,0.42,0.12246159225074524,0.41999999999999965,0.12246159225074521,-0.18585796687739295,0.1903890494749795,-0.9825483185161632,3.31,0.0,0.0
73.10000000001662,3.31,0.42,0.12262934792321084,0.41999999999999965,0.12262934792321081,-0.18585796687739295,0.1903890494749795,-0.982061102497002,3.31,0.0,0.0
73.20000000001664,3.31,0.42,0.12279710359567644,0.41999999999999965,0.12279710359567643,-0.18585796687739295,0.1903890494749795,-0.9815738864778409,3.31,0.0,0.0
73.30000000001667,3.31,0.42,0.12296485926814205,0.41999999999999965,0.12296485926814203,-0.18585796687739295,0.1903890494749795,-0.9810866704586797,3.31,0.0,0.0
73.40000000001669,3.31,0.42,0.12313261494060765,0.41999999999999965,0.12313261494060762,-0.18585796687739295,0.1903890494749795,-0.9805994544395187,3.31,0.0,0.0
73.50000000001671,3.31,0.42,0.12330037061307325,0.41999999999999965,0.12330037061307322,-0.18585796687739295,0.1903890494749795,-0.9801122384203576,3.31,0.0,0.0
73.60000000001673,3.31,0.42,0.12346812628553885,0.41999999999999965,0.12346812628553883,-0.18585796687739295,0.1903890494749795,-0.9796250224011964,3.31,0.0,0.0
73.70000000001676,3.31,0.42,0.12363588195800446,0.41999999999999965,0.12363588195800443,-0.18585796687739295,0.1903890494749795,-0.9791378063820354,3.31,0.0,0.0
73.80000000001678,3.31,0.42,0.12380363763047006,0.41999999999999965,0.12380363763047,-0.18585796687739295,0.1903890494749795,-0.9786505903628742,3.31,0.0,0.0
73.9000000000168,3.31,0.42,0.12397139330293566,0.41999999999999965,0.12397139330293558,-0.18585796687739295,0.1903890494749795,-0.9781633743437134,3.31,0.0,0.0
74.00000000001683,3.31,0.42,0.12413914897540126,0.41999999999999965,0.1241391489754012,-0.18585796687739295,0.1903890494749795,-0.9776761583245521,3.31,0.0,0.0
74.10000000001685,3.31,0.42,0.12430690464786687,0.41999999999999965,0.12430690464786684,-0.18585796687739295,0.1903890494749795,-0.9771889423053909,3.31,0.0,0.0
